0000000000904,00002.905162,00002.762931,00002.502783,00003.307266,00003.030436,00002.957992,00002.862856,00003.380741,00002.899631,00003.071716,-00000.438835,-00000.058329,-00000.554764,-00000.073065,00000.007715,-00000.064308
0000000000905,00002.904996,00002.762579,00002.502506,00003.306956,00003.030466,00002.957910,00002.862678,00003.380815,00002.899191,00003.071797,-00000.438836,-00000.057996,-00000.554865,-00000.073115,00000.007509,-00000.064245
0000000000906,00002.904888,00002.762402,00002.502482,00003.307060,00003.030037,00002.958207,00002.862343,00003.380493,00002.899091,00003.071708,-00000.438883,-00000.058000,-00000.554987,-00000.073084,00000.007294,-00000.064178
0000000000907,00002.905472,00002.762465,00002.502972,00003.306796,00003.030062,00002.958499,00002.862191,00003.380556,00002.898717,00003.071777,-00000.438884,-00000.058079,-00000.555074,-00000.073490,00000.007118,-00000.064124
0000000000908,00002.905017,00002.762677,00002.502589,00003.306522,00003.030059,00002.958389,00002.862268,00003.380282,00002.898995,00003.071339,-00000.438924,-00000.058082,-00000.555177,-00000.073463,00000.006572,-00000.064067
0000000000909,00002.904789,00002.762368,00002.502280,00003.306297,00003.029718,00002.958275,00002.861777,00003.380335,00002.898676,00003.071035,-00000.438925,-00000.058150,-00000.555251,-00000.073446,00000.006059,-00000.064021
0000000000910,00002.904765,00002.762548,00002.501591,00003.306064,00003.030078,00002.958182,00002.862205,00003.380102,00002.898912,00003.071387,-00000.438596,-00000.058152,-00000.555702,-00000.073786,00000.005595,-00000.063973
0000000000911,00002.904934,00002.762649,00002.501691,00003.305873,00003.030151,00002.958085,00002.862149,00003.380148,00002.898641,00003.071491,-00000.438597,-00000.058210,-00000.555765,-00000.074134,00000.005158,-00000.063934
0000000000912,00002.904913,00002.762439,00002.501467,00003.306037,00003.029732,00002.958368,00002.861789,00003.379949,00002.898479,00003.071428,-00000.438679,-00000.058212,-00000.555786,-00000.074423,00000.004763,-00000.063893
0000000000913,00002.904694,00002.762887,00002.501190,00003.305874,00003.029793,00002.958286,00002.862104,00003.379988,00002.898974,00003.071154,-00000.438680,-00000.058261,-00000.555839,-00000.074719,00000.004754,-00000.063860
0000000000914,00002.905039,00002.763072,00002.501362,00003.306376,00003.029799,00002.958527,00002.862160,00003.380182,00002.899199,00003.071100,-00000.438388,-00000.058263,-00000.555857,-00000.074966,00000.004780,-00000.063825
0000000000915,00002.905215,00002.763453,00002.501851,00003.306600,00003.029852,00002.958456,00002.862065,00003.380215,00002.899257,00003.070867,-00000.438026,-00000.058305,-00000.555903,-00000.075218,00000.004773,-00000.063796
0000000000916,00002.905146,00002.763610,00002.502360,00003.305940,00003.030220,00002.957936,00002.862113,00003.380380,00002.898723,00003.070821,-00000.437777,-00000.058306,-00000.555918,-00000.075428,00000.004432,-00000.063766
0000000000917,00002.904933,00002.763572,00002.502414,00003.305405,00003.030265,00002.957513,00002.862032,00003.380045,00002.898410,00003.070622,-00000.437468,-00000.058342,-00000.555957,-00000.075642,00000.004063,-00000.064105
0000000000918,00002.905237,00002.763706,00002.502485,00003.305568,00003.030215,00002.957796,00002.861710,00003.380548,00002.898318,00003.070584,-00000.437256,-00000.058343,-00000.556333,-00000.076184,00000.003773,-00000.064080
0000000000919,00002.905056,00002.764036,00002.502168,00003.305839,00003.030253,00002.957799,00002.862004,00003.380626,00002.898777,00003.070414,-00000.436994,-00000.058373,-00000.556728,-00000.076367,00000.003096,-00000.064005
0000000000920,00002.904952,00002.764150,00002.502228,00003.305978,00003.030211,00002.957677,00002.862093,00003.380329,00002.899062,00003.070382,-00000.436813,-00000.058375,-00000.556686,-00000.076827,00000.002486,-00000.063984
0000000000921,00002.904798,00002.764431,00002.502321,00003.306208,00003.029880,00002.957679,00002.862343,00003.380395,00002.899453,00003.069875,-00000.436953,-00000.058763,-00000.557023,-00000.077346,00000.001910,-00000.063920
0000000000922,00002.904709,00002.764528,00002.502373,00003.306326,00003.029845,00002.957575,00002.862418,00003.380142,00002.899695,00003.070209,-00000.436799,-00000.058764,-00000.556986,-00000.077738,00000.001391,-00000.064265
0000000000923,00002.904941,00002.764405,00002.502814,00003.306159,00003.029926,00002.957578,00002.862269,00003.380562,00002.899665,00003.070503,-00000.436555,-00000.058732,-00000.557273,-00000.078179,00000.000900,-00000.064574
0000000000924,00002.904865,00002.764487,00002.503221,00003.305897,00003.030258,00002.957489,00002.862333,00003.380709,00002.899509,00003.071151,-00000.436424,-00000.058733,-00000.557605,-00000.078513,00000.000459,-00000.064867
0000000000925,00002.905063,00002.764382,00002.503597,00003.305755,00003.030328,00002.957491,00002.862206,00003.381066,00002.899120,00003.071401,-00000.436216,-00000.059068,-00000.557849,-00000.078889,00000.000041,-00000.065130
0000000000926,00002.905361,00002.764452,00002.503943,00003.305895,00003.029885,00002.957778,00002.861897,00003.381554,00002.898987,00003.071227,-00000.436105,-00000.059069,-00000.558131,-00000.078811,-00000.000698,-00000.065379
0000000000927,00002.904803,00002.765089,00002.503901,00003.306136,00003.029944,00002.957417,00002.862152,00003.381495,00002.899382,00003.071078,-00000.435928,-00000.058992,-00000.558339,-00000.079130,-00000.001054,-00000.065603
0000000000928,00002.904332,00002.765148,00002.503832,00003.305893,00003.029204,00002.957299,00002.862252,00003.381548,00002.899631,00003.070929,-00000.435834,-00000.058993,-00000.558580,-00000.079427,-00000.001683,-00000.065816
0000000000929,00002.904220,00002.765327,00002.504522,00003.306461,00003.029617,00002.957354,00002.862106,00003.381861,00002.899605,00003.071527,-00000.435683,-00000.059290,-00000.558756,-00000.079699,-00000.002348,-00000.065643
0000000000930,00002.904544,00002.765378,00002.504464,00003.306616,00003.029351,00002.957254,00002.861829,00003.381906,00002.899091,00003.071401,-00000.435602,-00000.059290,-00000.558961,-00000.079951,-00000.002884,-00000.065461
0000000000931,00002.904812,00002.765530,00002.504688,00003.306375,00003.028977,00002.957301,00002.861704,00003.382172,00002.899069,00003.071548,-00000.435474,-00000.059180,-00000.559112,-00000.080182,-00000.003450,-00000.065315
0000000000932,00002.904362,00002.765936,00002.505001,00003.306507,00003.028749,00002.956852,00002.861831,00003.382210,00002.898994,00003.071077,-00000.435405,-00000.059181,-00000.559286,-00000.080397,-00000.004269,-00000.065160
0000000000933,00002.904590,00002.765703,00002.505192,00003.305939,00003.028794,00002.956530,00002.862088,00003.382074,00002.898975,00003.071202,-00000.435296,-00000.059087,-00000.559414,-00000.080594,-00000.005114,-00000.065398
0000000000934,00002.904570,00002.766049,00002.505459,00003.306051,00003.028963,00002.956148,00002.862196,00003.382107,00002.899275,00003.071527,-00000.435238,-00000.059088,-00000.559563,-00000.080777,-00000.005811,-00000.065629
0000000000935,00002.904401,00002.766576,00002.505258,00003.305930,00003.029001,00002.956236,00002.862051,00003.381991,00002.899621,00003.071271,-00000.435145,-00000.059008,-00000.559672,-00000.080945,-00000.006893,-00000.065831
0000000000936,00002.904747,00002.766870,00002.505485,00003.306026,00003.028782,00002.956274,00002.862143,00003.381656,00002.899876,00003.071548,-00000.435095,-00000.059008,-00000.559798,-00000.081100,-00000.008212,-00000.066028
0000000000937,00002.904966,00002.766956,00002.506040,00003.306285,00003.029178,00002.956349,00002.862383,00003.381920,00002.899808,00003.071692,-00000.434653,-00000.058941,-00000.559528,-00000.081243,-00000.009496,-00000.066201
0000000000938,00002.905260,00002.767207,00002.506234,00003.306367,00003.028991,00002.956381,00002.862461,00003.381997,00002.899663,00003.071928,-00000.434248,-00000.058941,-00000.559636,-00000.081013,-00000.010619,-00000.066731
0000000000939,00002.905447,00002.767280,00002.506706,00003.306225,00003.028602,00002.956445,00002.862666,00003.382222,00002.899605,00003.072413,-00000.433872,-00000.058883,-00000.559406,-00000.080772,-00000.011712,-00000.066877
0000000000940,00002.905334,00002.767493,00002.506871,00003.306295,00003.028806,00002.956472,00002.862732,00003.382288,00002.900207,00003.072614,-00000.433527,-00000.058883,-00000.559135,-00000.080576,-00000.012305,-00000.066966
0000000000941,00002.905130,00002.767918,00002.507273,00003.306174,00003.028838,00002.956526,00002.862906,00003.382117,00002.900520,00003.072665,-00000.433207,-00000.058834,-00000.558939,-00000.080370,-00000.012873,-00000.067091
0000000000942,00002.905035,00002.768100,00002.507776,00003.305870,00003.028649,00002.956550,00002.862963,00003.382536,00002.900669,00003.072835,-00000.432550,-00000.058834,-00000.558708,-00000.080203,-00000.013377,-00000.067166
0000000000943,00002.904498,00002.768099,00002.507755,00003.305768,00003.028313,00002.956596,00002.862748,00003.382390,00002.900936,00003.072516,-00000.431915,-00000.058793,-00000.558542,-00000.079666,-00000.013861,-00000.066910
0000000000944,00002.904780,00002.767890,00002.508183,00003.304421,00003.028152,00002.956253,00002.862797,00003.382747,00002.901064,00003.073024,-00000.431356,-00000.058430,-00000.558345,-00000.079524,-00000.014291,-00000.066611
0000000000945,00002.904686,00002.768252,00002.508529,00003.304333,00003.028592,00002.956293,00002.862977,00003.382622,00002.901291,00003.073115,-00000.430815,-00000.058394,-00000.557840,-00000.079066,-00000.014702,-00000.066393
0000000000946,00002.904925,00002.768075,00002.509256,00003.304275,00003.028818,00002.956726,00002.862655,00003.382926,00002.901399,00003.073184,-00000.430339,-00000.058448,-00000.557310,-00000.078945,-00000.015068,-00000.066139
0000000000947,00002.905571,00002.768383,00002.509913,00003.303838,00003.028466,00002.956760,00002.862445,00003.383183,00002.901230,00003.073262,-00000.429879,-00000.058418,-00000.556881,-00000.078556,-00000.015781,-00000.066316
0000000000948,00002.905775,00002.768232,00002.510532,00003.303425,00003.028296,00002.956766,00002.862534,00003.383442,00002.901322,00003.073321,-00000.429111,-00000.058464,-00000.556429,-00000.078090,-00000.016092,-00000.066462
0000000000949,00002.905962,00002.768495,00002.511091,00003.303416,00003.028722,00002.956795,00002.862719,00003.383660,00002.901540,00003.073749,-00000.428356,-00000.058076,-00000.556064,-00000.077758,-00000.016337,-00000.066613
0000000000950,00002.906136,00002.768729,00002.511256,00003.302702,00003.028214,00002.956800,00002.862794,00003.383518,00002.901256,00003.073437,-00000.427703,-00000.058115,-00000.555680,-00000.077362,-00000.016602,-00000.066737
0000000000951,00002.906657,00002.769315,00002.511732,00003.302694,00003.027489,00002.956824,00002.862951,00003.383341,00002.901442,00003.073439,-00000.427060,-00000.057784,-00000.555368,-00000.077079,-00000.016447,-00000.066866
0000000000952,00002.906805,00002.769877,00002.512234,00003.303175,00003.027419,00002.956466,00002.863016,00003.383220,00002.901563,00003.073174,-00000.426504,-00000.057817,-00000.554678,-00000.076742,-00000.016673,-00000.067335
0000000000953,00002.906524,00002.770376,00002.512277,00003.302442,00003.026802,00002.956124,00002.863149,00003.382344,00002.902084,00003.072450,-00000.425957,-00000.057899,-00000.554413,-00000.076501,-00000.016904,-00000.067444
0000000000954,00002.905924,00002.771218,00002.512704,00003.301763,00003.026017,00002.955819,00002.863204,00003.381878,00002.902550,00003.072223,-00000.425120,-00000.057927,-00000.554189,-00000.076214,-00000.017096,-00000.067843
0000000000955,00002.905685,00002.772005,00002.512741,00003.301865,00003.025128,00002.955528,00002.863318,00003.381495,00002.902993,00003.071607,-00000.424292,-00000.057996,-00000.553963,-00000.076009,-00000.017292,-00000.068299
0000000000956,00002.905900,00002.772722,00002.513105,00003.302013,00003.024460,00002.955631,00002.863002,00003.381461,00002.903027,00003.071052,-00000.423580,-00000.058020,-00000.553772,-00000.075765,-00000.017819,-00000.068639
0000000000957,00002.905333,00002.773392,00002.513136,00003.302100,00003.023704,00002.955383,00002.863099,00003.381135,00002.903405,00003.070527,-00000.422874,-00000.058079,-00000.553217,-00000.075591,-00000.018349,-00000.069026
0000000000958,00002.905516,00002.773639,00002.513446,00003.301862,00003.023498,00002.955108,00002.863193,00003.381106,00002.903071,00003.070780,-00000.422268,-00000.058100,-00000.552692,-00000.075020,-00000.018797,-00000.069679
0000000000959,00002.905396,00002.773847,00002.513835,00003.301574,00003.023217,00002.954897,00002.863275,00003.380828,00002.903029,00003.070696,-00000.421668,-00000.058150,-00000.552220,-00000.074871,-00000.019248,-00000.070372
0000000000960,00002.905189,00002.774057,00002.514099,00003.301734,00003.022316,00002.955026,00002.862992,00003.380804,00002.903108,00003.070548,-00000.420789,-00000.057805,-00000.551772,-00000.074385,-00000.019630,-00000.070927
0000000000961,00002.905088,00002.774597,00002.514067,00003.302577,00003.021714,00002.955209,00002.863062,00003.380567,00002.903435,00003.070477,-00000.419915,-00000.057847,-00000.551733,-00000.073896,-00000.020014,-00000.071517
0000000000962,00002.904911,00002.775139,00002.513929,00003.303076,00003.020947,00002.955319,00002.863184,00003.380184,00002.903502,00003.069989,-00000.419167,-00000.057916,-00000.551715,-00000.073482,-00000.020339,-00000.071989
0000000000963,00002.904825,00002.774873,00002.514265,00003.302705,00003.020072,00002.955475,00002.863244,00003.380345,00002.903418,00003.069928,-00000.418423,-00000.057590,-00000.552044,-00000.073066,-00000.020666,-00000.072854
0000000000964,00002.904312,00002.774609,00002.513784,00003.302042,00003.019781,00002.954842,00002.863347,00003.380018,00002.903475,00003.069512,-00000.417786,-00000.057648,-00000.552392,-00000.072714,-00000.021305,-00000.073982
0000000000965,00002.904238,00002.774382,00002.514070,00003.301364,00003.019399,00002.954249,00002.863398,00003.379793,00002.903403,00003.069460,-00000.416790,-00000.057370,-00000.552672,-00000.072359,-00000.022309,-00000.075444
0000000000966,00002.904164,00002.773794,00002.514387,00003.300799,00003.018426,00002.954074,00002.863124,00003.379515,00002.903452,00003.069106,-00000.415885,-00000.057420,-00000.553331,-00000.072059,-00000.023579,-00000.076767
0000000000967,00002.904101,00002.773239,00002.516082,00003.299858,00003.017738,00002.953569,00002.862804,00003.379686,00002.903028,00003.069062,-00000.414674,-00000.057546,-00000.553569,-00000.072483,-00000.025159,-00000.078375
0000000000968,00002.903676,00002.773101,00002.518165,00003.299015,00003.017273,00002.953057,00002.862933,00003.379812,00002.903069,00003.069124,-00000.413541,-00000.057226,-00000.553767,-00000.073316,-00000.026966,-00000.079864
0000000000969,00002.903260,00002.772628,00002.519245,00003.298214,00003.016324,00002.952265,00002.862662,00003.379595,00002.902709,00003.068724,-00000.412510,-00000.056971,-00000.553970,-00000.073677,-00000.028674,-00000.080869
0000000000970,00002.903260,00002.772148,00002.521382,00003.297859,00003.015565,00002.952191,00002.862771,00003.380065,00002.903107,00003.068413,-00000.411545,-00000.056698,-00000.553776,-00000.074024,-00000.030575,-00000.081774
0000000000971,00002.903269,00002.771383,00002.522664,00003.297903,00003.015483,00002.952242,00002.862540,00003.380606,00002.902800,00003.068072,-00000.410305,-00000.056481,-00000.553949,-00000.074331,-00000.032392,-00000.082630
0000000000972,00002.902906,00002.771337,00002.523031,00003.297238,00003.014837,00002.951817,00002.862633,00003.381006,00002.902775,00003.067445,-00000.409121,-00000.056248,-00000.553784,-00000.074626,-00000.034372,-00000.083400
0000000000973,00002.902551,00002.771411,00002.523397,00003.296550,00003.014042,00002.951861,00002.863162,00003.381829,00002.903240,00003.066792,-00000.407702,-00000.056063,-00000.553568,-00000.074887,-00000.037008,-00000.084129
0000000000974,00002.902242,00002.771372,00002.524073,00003.295984,00003.013129,00002.951861,00002.863242,00003.382170,00002.903582,00003.065533,-00000.406332,-00000.055866,-00000.553064,-00000.075138,-00000.039782,-00000.084785
0000000000975,00002.902302,00002.771072,00002.523659,00003.295398,00003.011726,00002.951898,00002.863329,00003.382145,00002.903977,00003.063526,-00000.404761,-00000.055708,-00000.552155,-00000.075361,-00000.042751,-00000.085405
0000000000976,00002.902402,00002.770676,00002.525322,00003.294553,00003.011312,00002.951536,00002.863759,00003.382435,00002.903906,00003.062091,-00000.402869,-00000.055177,-00000.551364,-00000.075212,-00000.046202,-00000.085964
0000000000977,00002.902091,00002.770421,00002.525695,00003.293692,00003.010481,00002.951205,00002.864559,00003.382777,00002.904242,00003.060383,-00000.401169,-00000.054680,-00000.550590,-00000.075038,-00000.049817,-00000.086854
0000000000978,00002.902176,00002.769721,00002.526023,00003.292610,00003.009765,00002.950897,00002.864926,00003.383387,00002.904181,00003.059161,-00000.399195,-00000.053865,-00000.549553,-00000.074912,-00000.053843,-00000.087692
0000000000979,00002.901911,00002.769141,00002.528155,00003.291513,00003.009058,00002.950615,00002.865244,00003.384040,00002.904468,00003.058069,-00000.397385,-00000.053080,-00000.548532,-00000.074764,-00000.058010,-00000.088451
0000000000980,00002.901620,00002.768545,00002.527708,00003.290230,00003.008449,00002.950352,00002.865919,00003.384559,00002.904416,00003.056667,-00000.395705,-00000.052386,-00000.547649,-00000.074656,-00000.061800,-00000.088802
0000000000981,00002.901395,00002.768414,00002.527709,00003.290022,00003.007483,00002.950475,00002.866189,00003.385116,00002.904660,00003.055374,-00000.393801,-00000.051717,-00000.546417,-00000.074530,-00000.065346,-00000.088722
0000000000982,00002.901510,00002.768270,00002.530231,00003.289292,00003.006965,00002.950252,00002.866764,00003.385557,00002.904979,00003.054180,-00000.392008,-00000.051126,-00000.545665,-00000.074438,-00000.068210,-00000.088657
0000000000983,00002.901681,00002.768158,00002.530957,00003.288389,00003.006506,00002.949993,00002.867357,00003.386031,00002.904823,00003.053080,-00000.390388,-00000.050557,-00000.544979,-00000.074694,-00000.070867,-00000.088226
0000000000984,00002.901054,00002.768035,00002.530928,00003.287768,00003.005702,00002.950166,00002.867483,00003.386044,00002.905095,00003.051701,-00000.388861,-00000.050054,-00000.543977,-00000.074616,-00000.072942,-00000.087809
0000000000985,00002.901199,00002.767940,00002.531546,00003.287000,00003.004585,00002.950309,00002.867626,00003.386448,00002.904963,00003.050402,-00000.387481,-00000.049569,-00000.543392,-00000.074471,-00000.074841,-00000.087805
0000000000986,00002.901391,00002.767836,00002.531158,00003.286470,00003.003901,00002.950093,00002.868096,00003.386822,00002.904831,00003.049590,-00000.386182,-00000.049141,-00000.542539,-00000.074404,-00000.076607,-00000.087812
0000000000987,00002.901514,00002.767755,00002.530958,00003.285817,00003.003313,00002.949852,00002.868217,00003.387528,00002.904718,00003.048847,-00000.384645,-00000.048729,-00000.542041,-00000.074281,-00000.077861,-00000.087809
0000000000988,00002.901678,00002.767666,00002.529903,00003.285729,00003.002368,00002.950031,00002.868255,00003.387847,00002.904969,00003.047793,-00000.383538,-00000.048364,-00000.541315,-00000.074224,-00000.078639,-00000.087452
0000000000989,00002.901783,00002.767234,00002.529370,00003.285172,00003.001868,00002.949826,00002.868358,00003.388448,00002.904873,00003.047523,-00000.382593,-00000.048013,-00000.540529,-00000.074119,-00000.079343,-00000.087087
0000000000990,00002.901922,00002.767158,00002.528834,00003.284735,00003.001425,00002.949978,00002.868390,00003.389082,00002.904724,00003.046989,-00000.381651,-00000.047703,-00000.540273,-00000.074071,-00000.080006,-00000.086783
0000000000991,00002.901648,00002.767154,00002.528743,00003.284261,00003.001362,00002.949803,00002.868840,00003.389593,00002.905005,00003.046760,-00000.380846,-00000.047404,-00000.539967,-00000.073981,-00000.080606,-00000.086472
0000000000992,00002.901404,00002.767452,00002.528287,00003.284251,00003.000986,00002.949570,00002.869230,00003.389770,00002.905240,00003.046305,-00000.380407,-00000.047140,-00000.539749,-00000.073940,-00000.081532,-00000.086213
0000000000993,00002.900809,00002.767811,00002.527847,00003.284211,00003.000570,00002.949421,00002.869614,00003.389843,00002.905480,00003.045384,-00000.380084,-00000.046885,-00000.539488,-00000.073864,-00000.082406,-00000.085948
0000000000994,00002.900600,00002.767702,00002.527821,00003.283840,00003.000249,00002.949223,00002.869946,00003.390356,00002.905318,00003.044997,-00000.379710,-00000.046660,-00000.539303,-00000.073829,-00000.082832,-00000.085728
0000000000995,00002.900819,00002.767644,00002.527810,00003.283805,00002.999895,00002.949096,00002.869910,00003.390781,00002.905159,00003.044575,-00000.379436,-00000.046444,-00000.539081,-00000.073764,-00000.082850,-00000.085503
0000000000996,00002.900279,00002.767915,00002.527788,00003.284578,00002.999622,00002.948927,00002.869829,00003.390493,00002.905021,00003.043883,-00000.379117,-00000.046252,-00000.538923,-00000.073735,-00000.082487,-00000.085316
0000000000997,00002.900465,00002.768229,00002.527778,00003.284548,00002.999320,00002.949182,00002.869799,00003.390854,00002.904885,00003.043161,-00000.378884,-00000.046068,-00000.538734,-00000.073317,-00000.081777,-00000.085486
0000000000998,00002.900731,00002.768458,00002.527397,00003.284843,00002.998725,00002.949401,00002.869730,00003.390609,00002.904768,00003.042572,-00000.378613,-00000.045905,-00000.538237,-00000.072928,-00000.080379,-00000.085690
0000000000999,00002.900890,00002.768363,00002.527025,00003.284455,00002.998831,00002.949256,00002.870067,00003.390554,00002.904652,00003.042320,-00000.378414,-00000.045385,-00000.537713,-00000.072573,-00000.079049,-00000.085835
0000000001000,00002.900753,00002.768559,00002.526701,00003.284343,00002.999413,00002.949079,00002.870372,00003.390707,00002.904552,00003.042182,-00000.378183,-00000.045246,-00000.537653,-00000.072242,-00000.077497,-00000.086008
0000000001001,00002.900526,00002.769203,00002.526385,00003.284013,00002.999503,00002.948955,00002.871021,00003.390661,00002.904817,00003.041967,-00000.378014,-00000.045166,-00000.537569,-00000.071939,-00000.076001,-00000.086132
0000000001002,00002.900409,00002.770095,00002.525745,00003.283555,00002.999273,00002.948805,00002.871280,00003.390791,00002.905095,00003.041849,-00000.377817,-00000.045048,-00000.537518,-00000.071658,-00000.074317,-00000.085917
0000000001003,00002.900215,00002.770644,00002.525476,00003.283637,00002.998987,00002.948700,00002.871470,00003.390389,00002.905320,00003.041304,-00000.377673,-00000.044980,-00000.537447,-00000.071400,-00000.072319,-00000.085659
0000000001004,00002.900117,00002.770678,00002.525658,00003.283247,00002.998791,00002.948572,00002.871691,00003.390500,00002.905193,00003.041203,-00000.377506,-00000.044880,-00000.537404,-00000.071161,-00000.070159,-00000.085839
0000000001005,00002.899951,00002.770782,00002.525792,00003.282591,00002.998547,00002.948119,00002.871853,00003.390520,00002.905385,00003.041102,-00000.377746,-00000.044822,-00000.536981,-00000.070941,-00000.067732,-00000.085982
0000000001006,00002.899867,00002.770811,00002.525946,00003.282259,00002.998743,00002.948373,00002.872041,00003.390978,00002.905278,00003.041379,-00000.377967,-00000.044737,-00000.536943,-00000.070737,-00000.065531,-00000.086135
0000000001007,00002.899727,00002.771262,00002.525697,00003.282426,00002.998536,00002.948350,00002.872178,00003.390632,00002.905441,00003.040930,-00000.378171,-00000.044687,-00000.536583,-00000.070550,-00000.063465,-00000.086620
0000000001008,00002.900018,00002.771287,00002.525829,00003.282144,00002.998340,00002.948204,00002.871613,00003.390659,00002.905349,00003.040803,-00000.378722,-00000.044615,-00000.536189,-00000.070377,-00000.061591,-00000.087113
0000000001009,00002.899898,00002.771308,00002.525979,00003.281923,00002.998163,00002.948185,00002.871367,00003.391090,00002.905125,00003.040784,-00000.379258,-00000.044573,-00000.535882,-00000.070218,-00000.059107,-00000.087163
0000000001010,00002.900146,00002.771329,00002.526091,00003.282046,00002.997996,00002.948423,00002.871611,00003.391113,00002.905047,00003.040676,-00000.379727,-00000.044511,-00000.535909,-00000.070070,-00000.056786,-00000.087220
0000000001011,00002.900044,00002.771348,00002.526220,00003.281858,00002.998209,00002.948406,00002.871765,00003.391117,00002.904857,00003.040660,-00000.380547,-00000.044475,-00000.535648,-00000.069572,-00000.054309,-00000.087262
0000000001012,00002.899892,00002.771365,00002.525952,00003.281962,00002.997704,00002.948609,00002.871973,00003.391137,00002.905153,00003.040205,-00000.381308,-00000.044422,-00000.535308,-00000.069083,-00000.051970,-00000.087311
0000000001013,00002.899806,00002.771381,00002.525336,00003.282165,00002.997522,00002.948595,00002.872104,00003.391140,00002.905354,00003.039828,-00000.382006,-00000.044392,-00000.535086,-00000.068659,-00000.049861,-00000.087347
0000000001014,00002.899314,00002.771759,00002.525108,00003.282254,00002.997455,00002.948767,00002.872281,00003.391157,00002.905606,00003.039804,-00000.383018,-00000.044347,-00000.534797,-00000.068243,-00000.047870,-00000.087751
0000000001015,00002.899240,00002.771772,00002.524584,00003.281701,00002.997663,00002.949118,00002.872392,00003.391160,00002.905777,00003.039846,-00000.383974,-00000.044321,-00000.534608,-00000.067882,-00000.046074,-00000.088145
0000000001016,00002.898821,00002.771368,00002.524027,00003.281776,00002.996518,00002.948902,00002.872180,00003.390811,00002.905629,00003.039099,-00000.385198,-00000.044283,-00000.534361,-00000.067528,-00000.044380,-00000.088126
0000000001017,00002.898395,00002.771380,00002.523943,00003.282394,00002.996332,00002.948838,00002.872275,00003.390814,00002.905774,00003.038772,-00000.386738,-00000.044261,-00000.534200,-00000.067583,-00000.042851,-00000.087735
0000000001018,00002.898764,00002.771399,00002.523832,00003.282458,00002.996083,00002.949017,00002.872094,00003.391243,00002.905648,00003.038500,-00000.388143,-00000.044228,-00000.533991,-00000.067645,-00000.041408,-00000.087356
0000000001019,00002.898402,00002.771408,00002.523761,00003.282984,00002.995924,00002.949326,00002.871812,00003.391245,00002.905772,00003.038221,-00000.389817,-00000.044209,-00000.533854,-00000.067692,-00000.039744,-00000.087024
0000000001020,00002.898353,00002.771062,00002.523303,00003.282676,00002.996075,00002.949478,00002.871658,00003.390884,00002.905665,00003.037989,-00000.391375,-00000.044182,-00000.534038,-00000.067744,-00000.038153,-00000.086701
0000000001021,00002.898770,00002.770707,00002.523243,00003.282761,00002.995577,00002.949740,00002.871418,00003.390886,00002.905407,00003.037752,-00000.393163,-00000.044166,-00000.534284,-00000.067784,-00000.036737,-00000.086418
0000000001022,00002.898729,00002.770412,00002.523216,00003.282136,00002.995706,00002.949507,00002.871287,00003.390579,00002.905316,00003.037917,-00000.394490,-00000.044142,-00000.534441,-00000.067466,-00000.035019,-00000.086144
0000000001023,00002.899084,00002.770473,00002.523164,00003.282208,00002.995282,00002.949731,00002.871083,00003.390218,00002.905460,00003.037716,-00000.396012,-00000.044129,-00000.534650,-00000.067137,-00000.033451,-00000.085903
0000000001024,00002.899412,00002.770585,00002.523142,00003.282764,00002.996117,00002.949895,00002.871334,00003.390320,00002.905382,00003.038219,-00000.397504,-00000.044471,-00000.534784,-00000.066866,-00000.031989,-00000.085306
0000000001025,00002.899351,00002.770637,00002.522735,00003.283189,00002.996119,00002.950085,00002.871160,00003.390375,00002.905504,00003.038410,-00000.398799,-00000.044460,-00000.534962,-00000.066950,-00000.031016,-00000.084739
0000000001026,00002.899267,00002.770006,00002.522716,00003.282574,00002.996104,00002.949862,00002.870648,00003.390461,00002.905438,00003.038476,-00000.400070,-00000.044751,-00000.535076,-00000.067082,-00000.030134,-00000.084231
0000000001027,00002.899578,00002.770050,00002.522732,00003.282935,00002.996106,00002.950024,00002.870500,00003.390508,00002.905180,00003.038639,-00000.401173,-00000.045104,-00000.535228,-00000.067152,-00000.029306,-00000.083747
0000000001028,00002.899507,00002.770239,00002.522716,00003.283137,00002.996819,00002.949835,00002.870790,00003.390219,00002.905486,00003.039057,-00000.402254,-00000.045353,-00000.535325,-00000.067265,-00000.028193,-00000.083315
0000000001029,00002.899409,00002.770276,00002.522367,00003.282356,00002.997183,00002.949610,00002.871027,00003.389896,00002.905629,00003.039196,-00000.403556,-00000.045653,-00000.535454,-00000.067325,-00000.027125,-00000.082903
0000000001030,00002.899348,00002.770074,00002.522353,00003.282166,00002.997427,00002.949448,00002.870911,00003.389650,00002.905527,00003.039190,-00000.404839,-00000.045865,-00000.535536,-00000.067421,-00000.026540,-00000.082535
0000000001031,00002.899628,00002.770106,00002.522419,00003.282227,00002.997374,00002.949619,00002.870750,00003.389738,00002.905285,00003.039307,-00000.405948,-00000.046120,-00000.535646,-00000.067472,-00000.025994,-00000.082185
0000000001032,00002.899939,00002.769934,00002.522407,00003.282790,00002.997219,00002.949845,00002.870651,00003.389891,00002.905198,00003.039665,-00000.407403,-00000.046300,-00000.535717,-00000.067553,-00000.025133,-00000.081872
0000000001033,00002.899814,00002.769962,00002.522463,00003.282116,00002.997900,00002.949628,00002.870877,00003.389966,00002.904993,00003.040128,-00000.408709,-00000.046518,-00000.535810,-00000.067597,-00000.024306,-00000.081574
0000000001034,00002.899716,00002.769815,00002.522453,00003.281870,00002.998131,00002.949457,00002.870793,00003.390097,00002.904919,00003.040432,-00000.409948,-00000.046309,-00000.535507,-00000.067304,-00000.023210,-00000.081307
0000000001035,00002.899247,00002.769838,00002.522138,00003.282022,00002.998348,00002.949272,00002.870622,00003.389798,00002.905107,00003.040464,-00000.411060,-00000.046131,-00000.535224,-00000.066978,-00000.022505,-00000.081053
0000000001036,00002.899164,00002.769714,00002.522130,00003.281812,00002.998544,00002.949126,00002.870550,00003.389546,00002.905044,00003.040360,-00000.412115,-00000.045953,-00000.534966,-00000.066728,-00000.021935,-00000.080826
0000000001037,00002.899127,00002.769371,00002.522224,00003.281579,00002.998729,00002.948969,00002.870405,00003.389292,00002.904841,00003.040387,-00000.413061,-00000.045802,-00000.534725,-00000.066451,-00000.021698,-00000.080610
0000000001038,00002.899056,00002.769627,00002.521854,00003.281401,00002.998896,00002.948845,00002.870707,00003.389077,00002.905150,00003.040299,-00000.413959,-00000.046013,-00000.534506,-00000.066238,-00000.021213,-00000.080416
0000000001039,00002.899388,00002.769335,00002.521572,00003.281565,00002.998690,00002.949074,00002.870583,00003.388861,00002.904978,00003.039959,-00000.414765,-00000.046247,-00000.534300,-00000.066002,-00000.020648,-00000.079870
0000000001040,00002.899690,00002.769191,00002.521619,00003.281050,00002.998833,00002.948969,00002.870477,00003.389041,00002.904878,00003.039883,-00000.415892,-00000.046426,-00000.534476,-00000.065821,-00000.020235,-00000.079342
0000000001041,00002.899972,00002.768942,00002.521742,00003.280464,00002.999021,00002.949163,00002.870372,00003.389219,00002.904731,00003.039957,-00000.416941,-00000.046263,-00000.534302,-00000.065620,-00000.019755,-00000.079240
0000000001042,00002.900230,00002.768819,00002.521420,00003.280389,00002.999142,00002.949436,00002.869919,00003.389373,00002.904646,00003.040256,-00000.417901,-00000.046416,-00000.534088,-00000.065466,-00000.019766,-00000.079153
0000000001043,00002.900107,00002.768608,00002.521524,00003.279890,00002.998939,00002.949240,00002.869829,00003.389162,00002.904521,00003.040318,-00000.418794,-00000.046277,-00000.533940,-00000.065295,-00000.019357,-00000.079066
0000000001044,00002.900326,00002.768503,00002.521613,00003.279463,00002.999042,00002.949109,00002.869807,00003.389292,00002.904449,00003.040210,-00000.419973,-00000.046044,-00000.533758,-00000.065164,-00000.019366,-00000.078993
0000000001045,00002.900585,00002.767960,00002.521339,00003.279401,00002.999232,00002.949304,00002.869730,00003.389113,00002.904343,00003.039900,-00000.421096,-00000.045926,-00000.533632,-00000.065018,-00000.019381,-00000.078918
0000000001046,00002.900046,00002.768234,00002.521051,00003.279764,00002.999320,00002.949193,00002.870074,00003.388498,00002.904644,00003.039808,-00000.422100,-00000.045728,-00000.533477,-00000.064907,-00000.019389,-00000.078856
0000000001047,00002.899540,00002.768497,00002.521181,00003.280074,00002.999481,00002.949359,00002.870371,00003.387983,00002.905279,00003.039907,-00000.423056,-00000.045627,-00000.533370,-00000.064420,-00000.019401,-00000.079155
0000000001048,00002.899444,00002.768730,00002.521299,00003.279657,00002.999556,00002.949265,00002.870301,00003.387823,00002.905535,00003.039828,-00000.423911,-00000.045458,-00000.532875,-00000.063962,-00000.019771,-00000.079465
0000000001049,00002.899014,00002.768955,00002.521046,00003.279558,00002.999694,00002.949044,00002.870555,00003.387384,00002.905350,00003.039550,-00000.424725,-00000.045372,-00000.532421,-00000.063548,-00000.020144,-00000.079720
0000000001050,00002.898932,00002.769153,00002.520784,00003.279565,00002.999758,00002.949326,00002.870495,00003.387610,00002.905569,00003.039483,-00000.425453,-00000.045229,-00000.532363,-00000.063158,-00000.020459,-00000.079984
0000000001051,00002.898929,00002.769344,00002.520569,00003.279118,00002.999512,00002.949863,00002.871073,00003.387599,00002.905774,00003.039609,-00000.426146,-00000.045156,-00000.532339,-00000.062805,-00000.020777,-00000.080201
0000000001052,00002.898859,00002.769150,00002.520709,00003.279125,00002.999929,00002.949741,00002.871022,00003.387429,00002.905597,00003.039552,-00000.427128,-00000.045034,-00000.532289,-00000.062473,-00000.021407,-00000.080425
0000000001053,00002.898856,00002.769312,00002.520526,00003.278382,00003.000445,00002.949472,00002.871152,00003.387420,00002.905409,00003.040022,-00000.428080,-00000.044609,-00000.531906,-00000.062173,-00000.022041,-00000.080610
0000000001054,00002.898797,00002.769510,00002.520282,00003.278750,00003.000800,00002.949368,00002.871834,00003.387275,00002.905621,00003.039973,-00000.428917,-00000.044505,-00000.531501,-00000.061891,-00000.022578,-00000.080801
0000000001055,00002.899157,00002.769286,00002.520126,00003.278843,00003.001240,00002.949140,00002.871582,00003.387267,00002.905098,00003.040374,-00000.429728,-00000.044506,-00000.531175,-00000.061635,-00000.023117,-00000.080958
0000000001056,00002.899469,00002.769091,00002.520281,00003.278794,00003.001180,00002.949414,00002.871437,00003.387507,00002.904916,00003.040332,-00000.430440,-00000.044417,-00000.530830,-00000.061395,-00000.023937,-00000.081121
0000000001057,00002.899776,00002.768900,00002.520511,00003.278873,00003.001191,00002.949582,00002.871585,00003.387863,00002.904834,00003.040673,-00000.431130,-00000.044055,-00000.530190,-00000.060814,-00000.024758,-00000.081254
0000000001058,00002.899679,00002.769097,00002.520280,00003.278831,00003.001140,00002.949815,00002.871462,00003.387704,00002.904679,00003.040275,-00000.431736,-00000.043617,-00000.529534,-00000.060247,-00000.025819,-00000.081756
0000000001059,00002.899940,00002.769298,00002.520113,00003.278173,00003.000787,00002.949959,00002.871225,00003.388007,00002.904609,00003.039839,-00000.431961,-00000.043309,-00000.528625,-00000.059753,-00000.026882,-00000.082232
0000000001060,00002.899858,00002.770191,00002.519554,00003.278500,00003.000743,00002.950157,00002.871483,00003.388234,00002.904839,00003.039863,-00000.431751,-00000.042936,-00000.528067,-00000.059269,-00000.027785,-00000.082659
0000000001061,00002.899717,00002.771087,00002.519049,00003.278665,00003.000442,00002.950642,00002.871281,00003.388130,00002.904780,00003.039855,-00000.431217,-00000.042673,-00000.527294,-00000.058849,-00000.028689,-00000.083065
0000000001062,00002.900010,00002.771485,00002.518936,00003.278580,00003.000042,00002.950811,00002.871138,00003.387961,00002.904613,00003.039513,-00000.430676,-00000.042356,-00000.526818,-00000.058075,-00000.029458,-00000.083428
0000000001063,00002.900253,00002.771885,00002.520683,00003.278721,00003.000149,00002.950861,00002.870966,00003.388234,00002.904563,00003.039506,-00000.430221,-00000.042133,-00000.526160,-00000.057717,-00000.030590,-00000.083774
0000000001064,00002.900502,00002.772223,00002.522400,00003.278649,00002.999808,00002.951005,00002.871207,00003.388453,00002.904421,00003.039577,-00000.429397,-00000.041862,-00000.525755,-00000.057420,-00000.031608,-00000.084083
0000000001065,00002.900709,00002.772564,00002.523888,00003.278769,00002.999899,00002.950685,00002.871423,00003.388686,00002.904378,00003.039571,-00000.428648,-00000.041672,-00000.525558,-00000.057116,-00000.032572,-00000.084377
0000000001066,00002.900558,00002.773215,00002.524261,00003.279071,00002.999609,00002.950807,00002.871628,00003.388510,00002.904620,00003.039269,-00000.427946,-00000.041805,-00000.525213,-00000.056863,-00000.033438,-00000.084640
0000000001067,00002.900734,00002.773505,00002.525527,00003.279173,00002.999687,00002.950897,00002.871450,00003.388708,00002.904583,00003.039264,-00000.427308,-00000.042006,-00000.525045,-00000.056604,-00000.034259,-00000.084891
0000000001068,00002.900969,00002.773696,00002.526571,00003.279067,00002.999440,00002.951002,00002.871262,00003.388920,00002.904064,00003.039370,-00000.426711,-00000.042119,-00000.524752,-00000.056389,-00000.034996,-00000.085115
0000000001069,00002.900756,00002.773943,00002.527649,00003.279153,00002.999143,00002.951079,00002.871110,00003.389089,00002.904033,00003.039366,-00000.426168,-00000.042290,-00000.524608,-00000.056168,-00000.035695,-00000.085328
0000000001070,00002.900955,00002.774469,00002.528538,00003.279063,00002.998933,00002.951167,00002.870950,00003.389270,00002.904316,00003.039456,-00000.426022,-00000.042386,-00000.524359,-00000.055986,-00000.036322,-00000.085882
0000000001071,00002.901137,00002.775042,00002.527641,00003.279137,00002.998680,00002.951233,00002.871183,00003.389051,00002.904289,00003.039089,-00000.425923,-00000.042169,-00000.524237,-00000.055798,-00000.036917,-00000.086063
0000000001072,00002.901307,00002.775489,00002.527309,00003.278697,00002.998864,00002.951308,00002.871772,00003.389205,00002.904531,00003.039166,-00000.426524,-00000.042251,-00000.524024,-00000.056005,-00000.037451,-00000.086172
0000000001073,00002.901099,00002.775977,00002.526909,00003.278398,00002.999375,00002.951001,00002.872334,00003.389381,00002.904871,00003.039217,-00000.427891,-00000.042429,-00000.523558,-00000.056208,-00000.037958,-00000.086326
0000000001074,00002.900881,00002.775995,00002.526263,00003.278023,00002.999531,00002.950703,00002.872473,00003.389513,00002.904351,00003.039282,-00000.429854,-00000.042498,-00000.523014,-00000.056384,-00000.038413,-00000.086418
0000000001075,00002.900704,00002.776410,00002.525923,00003.278131,00002.999966,00002.950441,00002.872951,00003.389663,00002.904640,00003.039688,-00000.432106,-00000.042287,-00000.522254,-00000.056557,-00000.039207,-00000.086550
0000000001076,00002.900518,00002.776789,00002.525373,00003.278175,00003.000099,00002.950550,00002.873432,00003.389411,00002.904923,00003.039381,-00000.434140,-00000.041983,-00000.521791,-00000.056344,-00000.039957,-00000.086266
0000000001077,00002.900730,00002.776779,00002.525083,00003.278629,00002.999744,00002.951053,00002.873476,00003.389539,00002.904807,00003.039364,-00000.436057,-00000.041804,-00000.521507,-00000.056491,-00000.040270,-00000.086015
0000000001078,00002.900572,00002.776739,00002.524615,00003.278667,00002.999494,00002.951145,00002.873523,00003.389325,00002.904684,00003.039102,-00000.437788,-00000.041545,-00000.521113,-00000.056310,-00000.040545,-00000.085773
0000000001079,00002.900752,00002.777093,00002.524368,00003.278691,00002.999191,00002.951574,00002.873560,00003.389434,00002.904948,00003.039088,-00000.439420,-00000.041392,-00000.520871,-00000.056072,-00000.040449,-00000.085560
0000000001080,00002.900980,00002.777059,00002.523970,00003.278723,00002.998979,00002.952015,00002.873600,00003.389252,00002.904844,00003.038865,-00000.441257,-00000.041172,-00000.520536,-00000.055918,-00000.039958,-00000.085354
0000000001081,00002.900771,00002.777361,00002.523760,00003.278743,00002.999084,00002.952017,00002.873995,00003.389345,00002.905069,00003.038853,-00000.443009,-00000.041042,-00000.520330,-00000.056078,-00000.039513,-00000.084809
0000000001082,00002.900965,00002.777331,00002.523784,00003.278771,00002.999629,00002.952030,00002.874028,00003.389553,00002.904980,00003.039389,-00000.444210,-00000.040855,-00000.520044,-00000.055947,-00000.039095,-00000.084271
0000000001083,00002.900787,00002.777588,00002.523242,00003.278788,00002.999719,00002.952031,00002.874002,00003.389269,00002.905172,00003.039015,-00000.445339,-00000.040744,-00000.519869,-00000.055721,-00000.038354,-00000.083807
0000000001084,00002.900227,00002.776838,00002.522899,00003.277723,00002.999820,00002.951317,00002.874031,00003.389083,00002.904733,00003.039109,-00000.445998,-00000.040584,-00000.519626,-00000.055972,-00000.037998,-00000.083349
0000000001085,00002.900075,00002.776694,00002.522438,00003.278100,00002.999533,00002.950955,00002.874008,00003.388478,00002.904896,00003.038791,-00000.446959,-00000.040490,-00000.519839,-00000.056142,-00000.037367,-00000.082954
0000000001086,00002.899961,00002.776418,00002.522147,00003.278645,00002.999619,00002.951436,00002.874032,00003.388320,00002.905249,00003.038145,-00000.447883,-00000.040354,-00000.519995,-00000.056356,-00000.037064,-00000.082202
0000000001087,00002.899832,00002.776295,00002.521754,00003.278966,00003.000101,00002.951491,00002.874376,00003.388168,00002.905387,00003.038237,-00000.448701,-00000.040274,-00000.520177,-00000.056864,-00000.036890,-00000.081503
0000000001088,00002.899735,00002.776423,00002.521869,00003.279067,00003.000537,00002.951537,00002.874759,00003.388396,00002.905688,00003.038413,-00000.449488,-00000.040521,-00000.520309,-00000.057046,-00000.036632,-00000.080862
0000000001089,00002.899988,00002.775956,00002.521897,00003.279340,00003.000584,00002.951583,00002.874689,00003.388630,00002.905443,00003.038491,-00000.450184,-00000.040452,-00000.520464,-00000.057115,-00000.036121,-00000.080267
0000000001090,00002.899905,00002.776064,00002.521632,00003.279789,00003.000592,00002.951623,00002.874653,00003.388098,00002.905698,00003.038278,-00000.451217,-00000.040300,-00000.520214,-00000.057270,-00000.035175,-00000.080084
0000000001091,00002.900121,00002.776029,00002.521656,00003.279659,00003.000632,00002.951663,00002.874593,00003.387934,00002.905490,00003.038345,-00000.452173,-00000.040242,-00000.519983,-00000.057329,-00000.034377,-00000.079941
0000000001092,00002.900050,00002.776122,00002.521793,00003.280766,00003.000639,00002.951696,00002.874562,00003.387845,00002.905707,00003.038163,-00000.453052,-00000.040112,-00000.519771,-00000.057461,-00000.033573,-00000.079423
0000000001093,00002.900234,00002.776092,00002.521814,00003.280656,00003.000674,00002.952093,00002.874511,00003.388068,00002.905530,00003.037857,-00000.453865,-00000.040062,-00000.519937,-00000.057511,-00000.032531,-00000.078937
0000000001094,00002.900536,00002.775808,00002.521568,00003.280510,00003.000317,00002.952121,00002.874122,00003.388354,00002.905352,00003.037703,-00000.454614,-00000.039952,-00000.519756,-00000.057261,-00000.031120,-00000.078496
0000000001095,00002.900692,00002.775783,00002.521585,00003.280416,00003.000709,00002.952096,00002.874079,00003.388544,00002.905201,00003.037805,-00000.455306,-00000.039910,-00000.519534,-00000.056941,-00000.029870,-00000.077720
0000000001096,00002.900588,00002.775904,00002.521376,00003.280655,00003.000768,00002.952483,00002.874110,00003.388063,00002.905413,00003.037674,-00000.456669,-00000.039816,-00000.519380,-00000.056728,-00000.029032,-00000.076982
0000000001097,00002.900358,00002.775882,00002.521028,00003.280938,00003.001102,00002.952824,00002.874073,00003.387862,00002.905647,00003.037398,-00000.458347,-00000.039780,-00000.519192,-00000.056455,-00000.028693,-00000.076322
0000000001098,00002.900994,00002.775260,00002.521212,00003.280778,00003.001515,00002.952791,00002.873737,00003.387815,00002.905102,00003.037649,-00000.460595,-00000.039337,-00000.518698,-00000.056274,-00000.028343,-00000.075693
0000000001099,00002.900435,00002.774879,00002.521279,00003.280293,00003.002161,00002.952356,00002.873706,00003.387643,00002.904938,00003.037777,-00000.464926,-00000.038581,-00000.517811,-00000.056042,-00000.028055,-00000.075131
0000000001100,00002.899888,00002.774711,00002.519985,00003.279795,00003.002513,00002.952328,00002.873420,00003.387240,00002.904837,00003.037265,-00000.474459,-00000.037478,-00000.516303,-00000.055162,-00000.028119,-00000.074596
0000000001101,00002.899413,00002.774024,00002.518953,00003.279019,00003.003789,00002.952320,00002.873393,00003.387095,00002.904335,00003.037374,-00000.490118,-00000.035746,-00000.514460,-00000.053876,-00000.028599,-00000.073391
0000000001102,00002.898948,00002.773156,00002.517489,00003.278594,00003.005540,00002.952296,00002.873150,00003.386389,00002.903885,00003.037301,-00000.509842,-00000.033719,-00000.512087,-00000.052764,-00000.030105,-00000.071122
0000000001103,00002.898543,00002.771846,00002.515885,00003.278297,00003.006989,00002.952652,00002.872401,00003.385902,00002.903095,00003.037394,-00000.533694,-00000.031882,-00000.509793,-00000.052395,-00000.031602,-00000.067557
0000000001104,00002.897784,00002.770018,00002.514275,00003.276847,00003.009568,00002.952995,00002.871468,00003.386027,00002.901625,00003.037332,-00000.566448,-00000.030519,-00000.507773,-00000.052536,-00000.031796,-00000.063448
0000000001105,00002.896713,00002.768177,00002.512184,00003.275868,00003.011527,00002.953298,00002.870469,00003.385612,00002.899138,00003.036685,-00000.605255,-00000.029318,-00000.505457,-00000.051860,-00000.031257,-00000.061865
0000000001106,00002.894253,00002.765896,00002.510814,00003.273909,00003.014085,00002.953589,00002.868949,00003.384993,00002.895346,00003.036269,-00000.649465,-00000.027795,-00000.503011,-00000.049441,-00000.029245,-00000.061632
0000000001107,00002.891166,00002.763966,00002.509397,00003.271987,00003.016841,00002.953848,00002.867735,00003.383914,00002.890690,00003.035719,-00000.699915,-00000.026772,-00000.500677,-00000.046325,-00000.026246,-00000.061736
0000000001108,00002.886894,00002.762749,00002.507142,00003.266691,00003.019382,00002.954459,00002.866441,00003.382661,00002.886374,00003.034639,-00000.756779,-00000.026201,-00000.498233,-00000.043540,-00000.023445,-00000.062263
0000000001109,00002.882815,00002.761469,00002.504484,00003.260339,00003.022091,00002.954678,00002.864682,00003.381743,00002.880959,00003.033808,-00000.822584,-00000.026056,-00000.495883,-00000.040887,-00000.020529,-00000.061988
0000000001110,00002.878453,00002.760796,00002.500751,00003.254016,00003.025342,00002.954836,00002.863581,00003.380677,00002.875833,00003.032526,-00000.896750,-00000.025570,-00000.492713,-00000.037791,-00000.017419,-00000.061712
0000000001111,00002.873166,00002.759706,00002.496312,00003.245706,00003.028011,00002.955023,00002.861720,00003.379170,00002.869772,00003.030367,-00000.980342,-00000.025084,-00000.488173,-00000.034082,-00000.013486,-00000.061477
0000000001112,00002.868002,00002.759133,00002.492408,00003.235970,00003.031505,00002.954794,00002.860420,00003.377536,00002.863595,00003.028550,-00001.072140,-00000.024670,-00000.483298,-00000.029995,-00000.008299,-00000.060879
0000000001113,00002.862413,00002.760019,00002.487540,00003.226356,00003.034865,00002.954953,00002.858836,00003.375527,00002.858072,00003.025624,-00001.174139,-00000.024619,-00000.478345,-00000.025749,-00000.002411,-00000.060317
0000000001114,00002.857654,00002.761346,00002.482040,00003.215528,00003.037839,00002.955121,00002.857004,00003.373774,00002.852088,00003.022989,-00001.292557,-00000.024993,-00000.472744,-00000.020818,00000.003819,-00000.058357
0000000001115,00002.852895,00002.763189,00002.476083,00003.204079,00003.041425,00002.955620,00002.855656,00003.372427,00002.846661,00003.020498,-00001.418933,-00000.024949,-00000.465625,-00000.014301,00000.010646,-00000.055702
0000000001116,00002.847030,00002.765406,00002.469586,00003.190508,00003.044683,00002.955762,00002.854458,00003.370934,00002.841203,00003.017892,-00001.549492,-00000.024179,-00000.457591,-00000.007202,00000.018851,-00000.053307
0000000001117,00002.840440,00002.768063,00002.461975,00003.176770,00003.047736,00002.955461,00002.852948,00003.369062,00002.836221,00003.015046,-00001.685011,-00000.023416,-00000.448629,00000.001249,00000.026114,-00000.052861
0000000001118,00002.834358,00002.770314,00002.455356,00003.163403,00003.050146,00002.955583,00002.851566,00003.367428,00002.831212,00003.012102,-00001.823727,-00000.022760,-00000.439613,00000.009832,00000.031648,-00000.054450
0000000001119,00002.828022,00002.772213,00002.448514,00003.150982,00003.052745,00002.955689,00002.850280,00003.366560,00002.826245,00003.009316,-00001.963764,-00000.023199,-00000.431257,00000.017751,00000.034928,-00000.056247
0000000001120,00002.821031,00002.774854,00002.441429,00003.138152,00003.055522,00002.955793,00002.849466,00003.365532,00002.820892,00003.006810,-00002.107249,-00000.023729,-00000.422857,00000.026510,00000.038189,-00000.056512
0000000001121,00002.813461,00002.777922,00002.434515,00003.125764,00003.057735,00002.955883,00002.848734,00003.364067,00002.814850,00003.004075,-00002.254398,-00000.024103,-00000.413567,00000.038331,00000.043521,-00000.056227
0000000001122,00002.806058,00002.782711,00002.427395,00003.114479,00003.060825,00002.955971,00002.847679,00003.362829,00002.808117,00003.001579,-00002.400491,-00000.023829,-00000.403513,00000.052317,00000.051013,-00000.056815
0000000001123,00002.798525,00002.787862,00002.420784,00003.103208,00003.063797,00002.955686,00002.847056,00003.360494,00002.801884,00002.998888,-00002.551517,-00000.023421,-00000.393065,00000.065282,00000.058454,-00000.057662
0000000001124,00002.791135,00002.792664,00002.411820,00003.091787,00003.066790,00002.955398,00002.846520,00003.358352,00002.795427,00002.995675,-00002.702007,-00000.022825,-00000.382692,00000.076463,00000.062655,-00000.058162
0000000001125,00002.783633,00002.797412,00002.402564,00003.080015,00003.069683,00002.955155,00002.845627,00003.355638,00002.785042,00002.992296,-00002.850167,-00000.022478,-00000.371621,00000.087863,00000.065362,-00000.058520
0000000001126,00002.776616,00002.801862,00002.393845,00003.069203,00003.072594,00002.955273,00002.844808,00003.353452,00002.774466,00002.989197,-00002.997144,-00000.021970,-00000.360251,00000.101010,00000.069301,-00000.059672
0000000001127,00002.769505,00002.806267,00002.385603,00003.058094,00003.076145,00002.955066,00002.844410,00003.351504,00002.764174,00002.986321,-00003.143951,-00000.021312,-00000.347924,00000.116156,00000.074145,-00000.060339
0000000001128,00002.762443,00002.810419,00002.377817,00003.048164,00003.080074,00002.954803,00002.844076,00003.349643,00002.754082,00002.983683,-00003.290478,-00000.020154,-00000.334254,00000.131701,00000.078950,-00000.059868
0000000001129,00002.755663,00002.814169,00002.370075,00003.036893,00003.083097,00002.954627,00002.843375,00003.347985,00002.743506,00002.980872,-00003.432506,-00000.018506,-00000.320495,00000.146410,00000.082711,-00000.058260
0000000001130,00002.748563,00002.817703,00002.363085,00003.025538,00003.086079,00002.954403,00002.842727,00003.346401,00002.733101,00002.977901,-00003.565226,-00000.018609,-00000.307769,00000.158918,00000.084624,-00000.056408
0000000001131,00002.742066,00002.821258,00002.355405,00003.014491,00003.088653,00002.954253,00002.842130,00003.344264,00002.723373,00002.974419,-00003.690851,-00000.017568,-00000.295331,00000.170713,00000.084198,-00000.054676
0000000001132,00002.735659,00002.824267,00002.348729,00003.004461,00003.091191,00002.954063,00002.841216,00003.342552,00002.714152,00002.971527,-00003.813631,-00000.016567,-00000.282321,00000.183901,00000.084012,-00000.050922
0000000001133,00002.728677,00002.827656,00002.342191,00002.994332,00003.094108,00002.953935,00002.840708,00003.339282,00002.705870,00002.968200,-00003.935450,-00000.017132,-00000.269192,00000.198659,00000.082561,-00000.046183
0000000001134,00002.722134,00002.830580,00002.336144,00002.983980,00003.097357,00002.954136,00002.840293,00003.336374,00002.697295,00002.965012,-00004.055209,-00000.018457,-00000.255577,00000.213876,00000.080952,-00000.042262
0000000001135,00002.715827,00002.833465,00002.329491,00002.973542,00003.100566,00002.953665,00002.839860,00003.333590,00002.689519,00002.961455,-00004.170523,-00000.020027,-00000.242949,00000.227891,00000.078629,-00000.038952
0000000001136,00002.710258,00002.835592,00002.322529,00002.962916,00003.103332,00002.953110,00002.838781,00003.330751,00002.681493,00002.958015,-00004.280093,-00000.022243,-00000.231721,00000.240482,00000.075445,-00000.035615
0000000001137,00002.705251,00002.838048,00002.315777,00002.952942,00003.106426,00002.953434,00002.838413,00003.328744,00002.674511,00002.955349,-00004.382976,-00000.024667,-00000.221697,00000.250599,00000.072741,-00000.032072
0000000001138,00002.699784,00002.840221,00002.309125,00002.943533,00003.109507,00002.952962,00002.838220,00003.326327,00002.668404,00002.952422,-00004.478430,-00000.027280,-00000.212502,00000.259504,00000.070031,-00000.030319
0000000001139,00002.695160,00002.842675,00002.302288,00002.934679,00003.112141,00002.952512,00002.837906,00003.323893,00002.662823,00002.949789,-00004.570005,-00000.029706,-00000.202517,00000.270294,00000.067729,-00000.029117
0000000001140,00002.690868,00002.844887,00002.295537,00002.926307,00003.114763,00002.952111,00002.838105,00003.321473,00002.657261,00002.946571,-00004.657432,-00000.032656,-00000.192149,00000.281865,00000.064697,-00000.027987
0000000001141,00002.687294,00002.846613,00002.288265,00002.918770,00003.117006,00002.952091,00002.837838,00003.319763,00002.651784,00002.943605,-00004.737204,-00000.035084,-00000.182561,00000.293227,00000.060560,-00000.026238
0000000001142,00002.684004,00002.848497,00002.281067,00002.911279,00003.118875,00002.952111,00002.837281,00003.318066,00002.646687,00002.940503,-00004.809454,-00000.039046,-00000.175549,00000.302352,00000.055076,-00000.023825
0000000001143,00002.680961,00002.849967,00002.274151,00002.903049,00003.121147,00002.951731,00002.836691,00003.316973,00002.641662,00002.937615,-00004.875913,-00000.045105,-00000.169926,00000.309485,00000.048290,-00000.022337
0000000001144,00002.677797,00002.851933,00002.266935,00002.894858,00003.124190,00002.951023,00002.836580,00003.315166,00002.636960,00002.934974,-00004.941047,-00000.051380,-00000.163594,00000.319067,00000.044347,-00000.020645
0000000001145,00002.674844,00002.853547,00002.260322,00002.887489,00003.127575,00002.950700,00002.836078,00003.313510,00002.632682,00002.932515,-00005.003428,-00000.057263,-00000.155904,00000.330581,00000.044011,-00000.019741
0000000001146,00002.672514,00002.854858,00002.253090,00002.880516,00003.129803,00002.950823,00002.835621,00003.312334,00002.628316,00002.929178,-00005.062505,-00000.062968,-00000.147974,00000.343455,00000.044283,-00000.019389
0000000001147,00002.670000,00002.856232,00002.246372,00002.873155,00003.132321,00002.950548,00002.835556,00003.310924,00002.625037,00002.925997,-00005.116335,-00000.068702,-00000.141066,00000.356159,00000.044723,-00000.018982
0000000001148,00002.667653,00002.857711,00002.240216,00002.867219,00003.134218,00002.949927,00002.835166,00003.309197,00002.622046,00002.922431,-00005.161548,-00000.074646,-00000.136854,00000.365667,00000.043865,-00000.018320
0000000001149,00002.666601,00002.858880,00002.234860,00002.861677,00003.135999,00002.949692,00002.834748,00003.307635,00002.619254,00002.919360,-00005.197579,-00000.079890,-00000.134238,00000.372854,00000.042789,-00000.017611
0000000001150,00002.666417,00002.860139,00002.229981,00002.857350,00003.137251,00002.949889,00002.834054,00003.306527,00002.616345,00002.916687,-00005.227361,-00000.083863,-00000.131379,00000.379498,00000.042059,-00000.016684
0000000001151,00002.665885,00002.861135,00002.224696,00002.853358,00003.139130,00002.949690,00002.833698,00003.305197,00002.613969,00002.914072,-00005.254769,-00000.087239,-00000.127337,00000.387067,00000.041142,-00000.016080
0000000001152,00002.665728,00002.861844,00002.220543,00002.849674,00003.140196,00002.950220,00002.833107,00003.304617,00002.611493,00002.911797,-00005.280123,-00000.090258,-00000.122364,00000.395262,00000.039433,-00000.015292
0000000001153,00002.665275,00002.862691,00002.216770,00002.846275,00003.141796,00002.950413,00002.832805,00003.303848,00002.609470,00002.909571,-00005.300916,-00000.093132,-00000.119649,00000.401343,00000.036839,-00000.014778
0000000001154,00002.664779,00002.863658,00002.213234,00002.843502,00003.143428,00002.950139,00002.832664,00003.303354,00002.608087,00002.907996,-00005.316332,-00000.095339,-00000.119043,00000.405417,00000.033206,-00000.014832
0000000001155,00002.664393,00002.864379,00002.209659,00002.840972,00003.144428,00002.949941,00002.832044,00003.303062,00002.607090,00002.906102,-00005.326414,-00000.096697,-00000.120360,00000.408055,00000.029547,-00000.015120
0000000001156,00002.663970,00002.865565,00002.207012,00002.838973,00003.145092,00002.950070,00002.831198,00003.302641,00002.606639,00002.904399,-00005.331919,-00000.096762,-00000.120932,00000.411886,00000.026454,-00000.015529
0000000001157,00002.664005,00002.865816,00002.205057,00002.837908,00003.145580,00002.950264,00002.830307,00003.302755,00002.605791,00002.902786,-00005.335060,-00000.096104,-00000.120965,00000.416670,00000.024065,-00000.015048
0000000001158,00002.664008,00002.866463,00002.203166,00002.837295,00003.145420,00002.950374,00002.829588,00003.302398,00002.605406,00002.901336,-00005.335031,-00000.094346,-00000.121089,00000.421746,00000.023246,-00000.013945
0000000001159,00002.664037,00002.866677,00002.201864,00002.838202,00003.144384,00002.950902,00002.828467,00003.303946,00002.605047,00002.899600,-00005.331537,-00000.091972,-00000.121480,00000.426182,00000.023389,-00000.012810
0000000001160,00002.664040,00002.867227,00002.201344,00002.839494,00003.143885,00002.950996,00002.827854,00003.305092,00002.605082,00002.898366,-00005.323893,-00000.089024,-00000.123399,00000.428688,00000.023055,-00000.012234
0000000001161,00002.663702,00002.867772,00002.200961,00002.841718,00003.142640,00002.951445,00002.826899,00003.306047,00002.605139,00002.897251,-00005.314389,-00000.087003,-00000.127360,00000.429925,00000.022813,-00000.011994
0000000001162,00002.663341,00002.868240,00002.200880,00002.843180,00003.141490,00002.951525,00002.826378,00003.307023,00002.605170,00002.896200,-00005.304254,-00000.085581,-00000.132259,00000.431334,00000.021440,-00000.012592
0000000001163,00002.663054,00002.868704,00002.200554,00002.845436,00003.140067,00002.952270,00002.825928,00003.307837,00002.605581,00002.894888,-00005.292535,-00000.083498,-00000.136357,00000.433112,00000.019784,-00000.014201
0000000001164,00002.663110,00002.868740,00002.200849,00002.847770,00003.138725,00002.952701,00002.825122,00003.309030,00002.605969,00002.893631,-00005.281004,-00000.081199,-00000.140527,00000.434674,00000.017889,-00000.014710
0000000001165,00002.663228,00002.868773,00002.201297,00002.850778,00003.137514,00002.952973,00002.824376,00003.310085,00002.605957,00002.892514,-00005.269214,-00000.078700,-00000.144378,00000.436188,00000.016479,-00000.013903
0000000001166,00002.663275,00002.868803,00002.202636,00002.853853,00003.136009,00002.953340,00002.823689,00003.311102,00002.606287,00002.891444,-00005.254682,-00000.076381,-00000.149017,00000.436792,00000.015955,-00000.012160
0000000001167,00002.663013,00002.869556,00002.203380,00002.856777,00003.135341,00002.953571,00002.823417,00003.311637,00002.607002,00002.890856,-00005.240291,-00000.073891,-00000.153384,00000.436992,00000.015843,-00000.010385
0000000001168,00002.663053,00002.869219,00002.204157,00002.859395,00003.134785,00002.953520,00002.822832,00003.312139,00002.607284,00002.890307,-00005.227195,-00000.070828,-00000.156970,00000.437506,00000.015396,-00000.008538
0000000001169,00002.662830,00002.869498,00002.205153,00002.861884,00003.133491,00002.953717,00002.822601,00003.312595,00002.607529,00002.889081,-00005.213493,-00000.067982,-00000.160325,00000.438403,00000.013850,-00000.006664
0000000001170,00002.662864,00002.869574,00002.205815,00002.864475,00003.133017,00002.954037,00002.822466,00003.313385,00002.607769,00002.888614,-00005.198353,-00000.065375,-00000.163378,00000.439566,00000.012381,-00000.005091
0000000001171,00002.663037,00002.869448,00002.206300,00002.867320,00003.132641,00002.954204,00002.822269,00003.314136,00002.608341,00002.887933,-00005.181609,-00000.062590,-00000.167685,00000.439603,00000.011427,-00000.003133
0000000001172,00002.663066,00002.869150,00002.206501,00002.869889,00003.131876,00002.954114,00002.821791,00003.314446,00002.608182,00002.887536,-00005.164004,-00000.060007,-00000.172098,00000.438417,00000.011266,-00000.000344
0000000001173,00002.663213,00002.869406,00002.207277,00002.872673,00003.131192,00002.954257,00002.821623,00003.314722,00002.608306,00002.886956,-00005.146848,-00000.057636,-00000.176852,00000.436997,00000.011905,00000.002412
0000000001174,00002.663601,00002.869152,00002.208173,00002.875585,00003.130541,00002.954905,00002.821217,00003.315349,00002.608534,00002.886255,-00005.130410,-00000.056163,-00000.181335,00000.435625,00000.012493,00000.004061
0000000001175,00002.664089,00002.869007,00002.208833,00002.877956,00003.129596,00002.955389,00002.820711,00003.315947,00002.609002,00002.885761,-00005.114353,-00000.054870,-00000.185745,00000.434416,00000.012674,00000.005318
0000000001176,00002.664056,00002.869154,00002.209233,00002.879710,00003.129404,00002.955579,00002.820728,00003.316118,00002.609196,00002.885165,-00005.099997,-00000.053254,-00000.189198,00000.434336,00000.012812,00000.007448
0000000001177,00002.664109,00002.869030,00002.210522,00002.881365,00003.129326,00002.955991,00002.820297,00003.316627,00002.609232,00002.885107,-00005.085240,-00000.051065,-00000.192228,00000.436210,00000.013329,00000.010695
0000000001178,00002.664444,00002.869155,00002.211588,00002.883220,00003.128800,00002.956152,00002.819948,00003.316773,00002.609397,00002.884962,-00005.069753,-00000.048963,-00000.195893,00000.438681,00000.014898,00000.013959
0000000001179,00002.664851,00002.869050,00002.212321,00002.884992,00003.128007,00002.956866,00002.819945,00003.315392,00002.609428,00002.884550,-00005.054651,-00000.047462,-00000.199197,00000.441727,00000.016063,00000.016360
0000000001180,00002.664774,00002.869519,00002.212866,00002.886935,00003.127922,00002.957003,00002.820011,00003.314065,00002.609568,00002.884064,-00005.040015,-00000.045673,-00000.202680,00000.444919,00000.016673,00000.018414
0000000001181,00002.665121,00002.869429,00002.213491,00002.888080,00003.127611,00002.956885,00002.819645,00003.312889,00002.609594,00002.883713,-00005.023168,-00000.044395,-00000.206581,00000.447150,00000.016940,00000.020821
0000000001182,00002.665417,00002.869466,00002.213592,00002.889371,00003.127175,00002.957002,00002.819701,00003.311396,00002.609714,00002.883299,-00005.007081,-00000.043235,-00000.210272,00000.449504,00000.016371,00000.022931
0000000001183,00002.665713,00002.869753,00002.213761,00002.890709,00003.126910,00002.957264,00002.819752,00003.310033,00002.610099,00002.882638,-00004.992376,-00000.041421,-00000.211779,00000.453580,00000.016598,00000.024618
0000000001184,00002.666328,00002.869784,00002.214209,00002.891808,00003.126539,00002.957726,00002.819800,00003.308762,00002.610564,00002.882285,-00004.978319,-00000.038982,-00000.212744,00000.457398,00000.017564,00000.026052
0000000001185,00002.666580,00002.869665,00002.213991,00002.893310,00003.126313,00002.957949,00002.819481,00003.307602,00002.610891,00002.882085,-00004.964349,-00000.036350,-00000.214027,00000.460505,00000.018846,00000.027125
0000000001186,00002.666741,00002.869691,00002.213647,00002.894245,00003.126361,00002.958343,00002.819522,00003.306520,00002.611287,00002.881785,-00004.950931,-00000.034274,-00000.216663,00000.462305,00000.018943,00000.027983
0000000001187,00002.667318,00002.869953,00002.213461,00002.895161,00003.125443,00002.958896,00002.819250,00003.305532,00002.611566,00002.881615,-00004.939402,-00000.032759,-00000.219206,00000.464587,00000.018946,00000.028896
0000000001188,00002.668180,00002.869613,00002.213894,00002.895958,00003.125120,00002.959594,00002.818922,00003.304974,00002.611540,00002.881722,-00004.929792,-00000.031354,-00000.221087,00000.467933,00000.019391,00000.029263
0000000001189,00002.668308,00002.869836,00002.214098,00002.897100,00003.125427,00002.960064,00002.819053,00003.304133,00002.612140,00002.881577,-00004.919977,-00000.029702,-00000.223252,00000.470964,00000.019757,00000.029315
0000000001190,00002.668680,00002.869909,00002.214104,00002.897778,00003.125878,00002.960658,00002.819137,00003.303295,00002.612481,00002.881669,-00004.908895,-00000.027780,-00000.225579,00000.473449,00000.019773,00000.028903
0000000001191,00002.669515,00002.869736,00002.214277,00002.898388,00003.125777,00002.961059,00002.818886,00003.302941,00002.612266,00002.881908,-00004.895098,-00000.025648,-00000.228148,00000.474215,00000.018270,00000.029310
0000000001192,00002.669831,00002.869798,00002.213557,00002.899328,00003.125435,00002.961565,00002.818957,00003.301865,00002.612556,00002.881623,-00004.882035,-00000.024012,-00000.230129,00000.475243,00000.015019,00000.029684
0000000001193,00002.670179,00002.869650,00002.212979,00002.899847,00003.125349,00002.961906,00002.818744,00003.301202,00002.612373,00002.881464,-00004.870289,-00000.022922,-00000.231953,00000.476984,00000.011562,00000.030030
0000000001194,00002.670811,00002.869341,00002.213091,00002.900284,00003.125421,00002.962336,00002.818441,00003.301011,00002.612257,00002.881221,-00004.859895,-00000.022256,-00000.233639,00000.478947,00000.008069,00000.030712
0000000001195,00002.671107,00002.869215,00002.213325,00002.900726,00003.126073,00002.962264,00002.818622,00003.300446,00002.612102,00002.881449,-00004.850984,-00000.021691,-00000.235918,00000.481517,00000.005127,00000.031007
0000000001196,00002.671283,00002.869677,00002.213058,00002.901824,00003.126134,00002.962630,00002.818728,00003.300284,00002.612366,00002.880880,-00004.841410,-00000.021848,-00000.238441,00000.483914,00000.002516,00000.030498
0000000001197,00002.671535,00002.869570,00002.212531,00002.901837,00003.125964,00002.962931,00002.818519,00003.300166,00002.612234,00002.881073,-00004.828382,-00000.022093,-00000.241469,00000.486828,00000.001099,00000.030024
0000000001198,00002.671684,00002.869601,00002.212304,00002.902046,00003.126378,00002.962881,00002.818609,00003.299665,00002.612458,00002.881314,-00004.810073,-00000.021865,-00000.244706,00000.489957,00000.002142,00000.029591
0000000001199,00002.671899,00002.869510,00002.212218,00002.902420,00003.126596,00002.963137,00002.818431,00003.299565,00002.612346,00002.881479,-00004.790638,-00000.020259,-00000.246559,00000.493888,00000.004564,00000.029913
0000000001200,00002.672026,00002.869535,00002.211662,00002.902961,00003.126587,00002.963456,00002.818508,00003.299138,00002.612537,00002.881684,-00004.770698,-00000.018251,-00000.247500,00000.498003,00000.007628,00000.030996
0000000001201,00002.672934,00002.869095,00002.211589,00002.903280,00003.126409,00002.964038,00002.818356,00003.298690,00002.612804,00002.881461,-00004.750163,-00000.016521,-00000.247989,00000.501713,00000.011504,00000.032358
0000000001202,00002.674131,00002.869117,00002.210753,00002.904466,00003.126038,00002.964672,00002.818421,00003.297964,00002.614055,00002.881999,-00004.729197,-00000.015537,-00000.249879,00000.503039,00000.013750,00000.033643
0000000001203,00002.674904,00002.869468,00002.210328,00002.905462,00003.125887,00002.965167,00002.818293,00003.297582,00002.615371,00002.881809,-00004.707362,-00000.014790,-00000.252834,00000.502206,00000.014147,00000.034802
0000000001204,00002.675560,00002.869487,00002.210341,00002.906109,00003.125208,00002.965707,00002.817985,00003.297690,00002.616073,00002.881541,-00004.684798,-00000.013952,-00000.256257,00000.501521,00000.014970,00000.036621
0000000001205,00002.676218,00002.869423,00002.210343,00002.906958,00003.124717,00002.966129,00002.818238,00003.297002,00002.616830,00002.881017,-00004.662219,-00000.013679,-00000.259861,00000.501538,00000.016759,00000.038334
0000000001206,00002.676776,00002.869076,00002.210354,00002.906783,00003.124139,00002.966226,00002.817614,00003.297820,00002.617066,00002.880789,-00004.639745,-00000.013691,-00000.263501,00000.502043,00000.017460,00000.039520
0000000001207,00002.677337,00002.868659,00002.210355,00002.906780,00003.124447,00002.966221,00002.817467,00003.298685,00002.617710,00002.880706,-00004.619435,-00000.014185,-00000.266206,00000.503508,00000.017895,00000.040252
0000000001208,00002.677812,00002.868726,00002.210002,00002.907356,00003.123955,00002.966667,00002.817298,00003.299381,00002.618273,00002.880149,-00004.600302,-00000.015283,-00000.268216,00000.505752,00000.019218,00000.040899
0000000001209,00002.678289,00002.868371,00002.209640,00002.907716,00003.123491,00002.967026,00002.816810,00003.299755,00002.618822,00002.879352,-00004.581924,-00000.016429,-00000.270156,00000.507000,00000.019950,00000.041523
0000000001210,00002.678693,00002.868428,00002.209340,00002.908570,00003.123072,00002.967043,00002.816666,00003.299985,00002.619301,00002.878152,-00004.563460,-00000.016639,-00000.271142,00000.508548,00000.020351,00000.042436
0000000001211,00002.679462,00002.868851,00002.209394,00002.909239,00003.123403,00002.967348,00002.816976,00003.300666,00002.620131,00002.877837,-00004.544912,-00000.016888,-00000.272068,00000.509972,00000.022063,00000.043693
0000000001212,00002.680170,00002.868175,00002.209501,00002.909240,00003.123409,00002.967362,00002.816854,00003.301224,00002.620539,00002.877541,-00004.526654,-00000.017067,-00000.273633,00000.511290,00000.023855,00000.044833
0000000001213,00002.681187,00002.867809,00002.209911,00002.909447,00003.122965,00002.967623,00002.816755,00003.301804,00002.620883,00002.876910,-00004.509776,-00000.017642,-00000.275872,00000.512503,00000.023861,00000.045903
0000000001214,00002.681789,00002.867596,00002.210727,00002.909448,00003.122970,00002.967998,00002.816651,00003.302280,00002.620867,00002.876658,-00004.496773,-00000.018520,-00000.277930,00000.513987,00000.023210,00000.047236
0000000001215,00002.682292,00002.867648,00002.210350,00002.909625,00003.122955,00002.968219,00002.816566,00003.302773,00002.620797,00002.876121,-00004.486032,-00000.019009,-00000.279474,00000.516471,00000.021401,00000.048147
0000000001216,00002.682805,00002.867466,00002.210682,00002.909625,00003.123323,00002.968538,00002.816478,00003.302815,00002.620784,00002.875544,-00004.475325,-00000.018668,-00000.280500,00000.519548,00000.019396,00000.047831
0000000001217,00002.682870,00002.867510,00002.210361,00002.909775,00003.123309,00002.968727,00002.816406,00003.301784,00002.620724,00002.875086,-00004.466182,-00000.017997,-00000.280725,00000.523114,00000.018219,00000.047155
0000000001218,00002.683307,00002.866993,00002.210282,00002.910139,00003.123259,00002.968998,00002.816331,00003.301094,00002.620713,00002.874595,-00004.458881,-00000.017343,-00000.280148,00000.526460,00000.017600,00000.045797
0000000001219,00002.683726,00002.866668,00002.210008,00002.910267,00003.123248,00002.969522,00002.816270,00003.300579,00002.620662,00002.874205,-00004.451823,-00000.017135,-00000.280340,00000.528044,00000.016598,00000.045222
0000000001220,00002.684097,00002.866590,00002.209578,00002.910576,00003.122843,00002.969753,00002.816205,00003.301443,00002.620653,00002.873787,-00004.443068,-00000.017304,-00000.282025,00000.529803,00000.016797,00000.045155
0000000001221,00002.684091,00002.866676,00002.209708,00002.910322,00003.122834,00002.969473,00002.816516,00003.302456,00002.620609,00002.873818,-00004.434520,-00000.016763,-00000.284003,00000.531515,00000.017395,00000.045028
0000000001222,00002.684407,00002.866973,00002.209341,00002.910585,00003.122488,00002.969307,00002.816461,00003.303191,00002.620964,00002.873462,-00004.425253,-00000.015456,-00000.286162,00000.532650,00000.017201,00000.045333
0000000001223,00002.685396,00002.866210,00002.209502,00002.910593,00003.121824,00002.969290,00002.815591,00003.305043,00002.620504,00002.872823,-00004.405008,-00000.012433,-00000.293313,00000.533985,00000.012830,00000.046937
0000000001224,00002.685338,00002.866017,00002.209234,00002.910772,00003.121508,00002.969087,00002.815924,00003.305777,00002.620889,00002.872537,-00004.395200,-00000.011477,-00000.297433,00000.534608,00000.010376,00000.047462
0000000001225,00002.685826,00002.865759,00002.209411,00002.911115,00003.121352,00002.968740,00002.816222,00003.306155,00002.620802,00002.871672,-00004.382689,-00000.009408,-00000.303270,00000.538191,00000.007019,00000.046572
0000000001226,00002.686338,00002.865317,00002.209811,00002.911331,00003.121085,00002.968955,00002.816180,00003.306925,00002.620758,00002.871453,-00004.378906,-00000.007559,-00000.305091,00000.540335,00000.006464,00000.046723
0000000001227,00002.686604,00002.864814,00002.210288,00002.911770,00003.121219,00002.969170,00002.816113,00003.307565,00002.620729,00002.871662,-00004.374215,-00000.006557,-00000.307513,00000.541242,00000.005612,00000.047991
0000000001228,00002.686904,00002.864735,00002.210671,00002.912327,00003.120743,00002.969536,00002.816020,00003.307678,00002.621392,00002.871290,-00004.361922,-00000.006671,-00000.313303,00000.539122,00000.001150,00000.053190
0000000001229,00002.687329,00002.864361,00002.210961,00002.912484,00003.120550,00002.969692,00002.816353,00003.307981,00002.621669,00002.871131,-00004.354425,-00000.006929,-00000.314770,00000.537788,-00000.003081,00000.056240
0000000001230,00002.688247,00002.863261,00002.211970,00002.912210,00003.120899,00002.969255,00002.816950,00003.308394,00002.622192,00002.870838,-00004.334554,-00000.006262,-00000.315490,00000.534368,-00000.012781,00000.060938
0000000001231,00002.688720,00002.862905,00002.213036,00002.911809,00003.120665,00002.969442,00002.816854,00003.308889,00002.622020,00002.870705,-00004.318271,-00000.005761,-00000.317108,00000.531537,-00000.015958,00000.063035
0000000001232,00002.689431,00002.862384,00002.215187,00002.912723,00003.120997,00002.969405,00002.817377,00003.309167,00002.622853,00002.870113,-00004.284548,-00000.005993,-00000.320745,00000.525418,-00000.020841,00000.068899
0000000001233,00002.689693,00002.862199,00002.215575,00002.913175,00003.121503,00002.969547,00002.817219,00003.309355,00002.623433,00002.870014,-00004.271253,-00000.006298,-00000.321580,00000.523606,-00000.022225,00000.072224
0000000001234,00002.691347,00002.861421,00002.217349,00002.913523,00003.122437,00002.970220,00002.816962,00003.310289,00002.624419,00002.869888,-00004.241982,-00000.006450,-00000.322013,00000.520844,-00000.023273,00000.079624
0000000001235,00002.691948,00002.860892,00002.218323,00002.913855,00003.122864,00002.970381,00002.816857,00003.310949,00002.626344,00002.869851,-00004.221227,-00000.006304,-00000.322756,00000.517992,-00000.022276,00000.081445
0000000001236,00002.692030,00002.860395,00002.219222,00002.913820,00003.122868,00002.970430,00002.816742,00003.311448,00002.628887,00002.870143,-00004.198561,-00000.006579,-00000.324195,00000.514502,-00000.021264,00000.082296
0000000001237,00002.692611,00002.859159,00002.220816,00002.914435,00003.123235,00002.970246,00002.816193,00003.312071,00002.633778,00002.870360,-00004.153615,-00000.008866,-00000.327866,00000.508377,-00000.021004,00000.083482
0000000001238,00002.692738,00002.858776,00002.221214,00002.914259,00003.123236,00002.970000,00002.816117,00003.311878,00002.636463,00002.870333,-00004.133162,-00000.010412,-00000.328915,00000.505693,-00000.022767,00000.084963
0000000001239,00002.693940,00002.857781,00002.222875,00002.915172,00003.123912,00002.970243,00002.816386,00003.313525,00002.642405,00002.870885,-00004.093950,-00000.012855,-00000.329345,00000.500878,-00000.024823,00000.087204
0000000001240,00002.694199,00002.857883,00002.223020,00002.916131,00003.123814,00002.969902,00002.816725,00003.313779,00002.646822,00002.870702,-00004.069936,-00000.014122,-00000.330295,00000.497999,-00000.024826,00000.086895
0000000001241,00002.694821,00002.857384,00002.225138,00002.917128,00003.123678,00002.969434,00002.817266,00003.315870,00002.655214,00002.871199,-00004.012554,-00000.017464,-00000.335236,00000.489612,-00000.023674,00000.085583
0000000001242,00002.694436,00002.857194,00002.225909,00002.917228,00003.123270,00002.968920,00002.817120,00003.316122,00002.658485,00002.870720,-00003.990496,-00000.019136,-00000.336847,00000.487971,-00000.022946,00000.085362
0000000001243,00002.695023,00002.857159,00002.227598,00002.916611,00003.123215,00002.968598,00002.817240,00003.316776,00002.662967,00002.870851,-00003.963066,-00000.022095,-00000.336098,00000.488694,-00000.023162,00000.083552
0000000001244,00002.695183,00002.856960,00002.228476,00002.916685,00003.123155,00002.968750,00002.817140,00003.317512,00002.665862,00002.871364,-00003.950921,-00000.023040,-00000.335420,00000.488229,-00000.024398,00000.081648
0000000001245,00002.695658,00002.856597,00002.229420,00002.917963,00003.122391,00002.969179,00002.816894,00003.318322,00002.671060,00002.871037,-00003.920306,-00000.024330,-00000.335971,00000.486737,-00000.022947,00000.076400
0000000001246,00002.695947,00002.856071,00002.229533,00002.918379,00003.122456,00002.969070,00002.816758,00003.318787,00002.673078,00002.871367,-00003.909600,-00000.024327,-00000.335643,00000.486838,-00000.021580,00000.073876
0000000001247,00002.696426,00002.855564,00002.229861,00002.918325,00003.122829,00002.969181,00002.816685,00003.319012,00002.674759,00002.871484,-00003.905853,-00000.023977,-00000.333901,00000.488006,-00000.021711,00000.072658
0000000001248,00002.697079,00002.855409,00002.230236,00002.918633,00003.122839,00002.969546,00002.816507,00003.319962,00002.674644,00002.871501,-00003.901168,-00000.023677,-00000.331413,00000.488361,-00000.026101,00000.072737
0000000001249,00002.697288,00002.855699,00002.230264,00002.917847,00003.122887,00002.969413,00002.816771,00003.320298,00002.674925,00002.871432,-00003.897664,-00000.023729,-00000.331391,00000.487601,-00000.027528,00000.072036
0000000001250,00002.697088,00002.856250,00002.229854,00002.918226,00003.123251,00002.969743,00002.816580,00003.320331,00002.671882,00002.871094,-00003.895648,-00000.022740,-00000.329639,00000.486565,-00000.028876,00000.068943
0000000001251,00002.696711,00002.856146,00002.229068,00002.917776,00003.123219,00002.969757,00002.816535,00003.320061,00002.670633,00002.870858,-00003.898045,-00000.022115,-00000.328002,00000.486596,-00000.029608,00000.067745
0000000001252,00002.696959,00002.856268,00002.228472,00002.918891,00003.123534,00002.970399,00002.816017,00003.320492,00002.669317,00002.870606,-00003.899963,-00000.020641,-00000.326028,00000.485710,-00000.031736,00000.068917
0000000001253,00002.697134,00002.856084,00002.228227,00002.919241,00003.123100,00002.970209,00002.815917,00003.320383,00002.671024,00002.870563,-00003.898339,-00000.020564,-00000.326785,00000.484044,-00000.032345,00000.070745
0000000001254,00002.697682,00002.855852,00002.228482,00002.918687,00003.123433,00002.970421,00002.815853,00003.320766,00002.674003,00002.870717,-00003.894771,-00000.020045,-00000.330071,00000.480272,-00000.033340,00000.074012
0000000001255,00002.696988,00002.855425,00002.228569,00002.918634,00003.122996,00002.970067,00002.815509,00003.320137,00002.673072,00002.870208,-00003.895087,-00000.019969,-00000.332120,00000.478576,-00000.034108,00000.075051
0000000001256,00002.696832,00002.855291,00002.227322,00002.918534,00003.122982,00002.970300,00002.815505,00003.320557,00002.671393,00002.869690,-00003.890189,-00000.020990,-00000.337878,00000.475617,-00000.032664,00000.078040
0000000001257,00002.696585,00002.855541,00002.227542,00002.918849,00003.122614,00002.970446,00002.815444,00003.320389,00002.672507,00002.869309,-00003.886648,-00000.021297,-00000.341148,00000.474690,-00000.031334,00000.079213
0000000001258,00002.696699,00002.855540,00002.227712,00002.918448,00003.122606,00002.969773,00002.815866,00003.320551,00002.673955,00002.869249,-00003.882391,-00000.020409,-00000.343868,00000.473461,-00000.031435,00000.080584
0000000001259,00002.696949,00002.855752,00002.228044,00002.918013,00003.123013,00002.969324,00002.816172,00003.320546,00002.676861,00002.869599,-00003.871400,-00000.019913,-00000.349331,00000.469448,-00000.032203,00000.083476
0000000001260,00002.697079,00002.855570,00002.228203,00002.917986,00003.123364,00002.969121,00002.816436,00003.320734,00002.678394,00002.869940,-00003.863607,-00000.020244,-00000.351755,00000.465982,-00000.032420,00000.084998
0000000001261,00002.697272,00002.855414,00002.228099,00002.917982,00003.122932,00002.969131,00002.816658,00003.320339,00002.681003,00002.869825,-00003.851780,-00000.020862,-00000.354231,00000.458365,-00000.034129,00000.087233
0000000001262,00002.696980,00002.855414,00002.227533,00002.918723,00003.123344,00002.968925,00002.817018,00003.320122,00002.679520,00002.869425,-00003.849807,-00000.021148,-00000.353640,00000.455736,-00000.034863,00000.087979
0000000001263,00002.697188,00002.855282,00002.226078,00002.918609,00003.123641,00002.968602,00002.817154,00003.319818,00002.676519,00002.869023,-00003.845837,-00000.021631,-00000.351845,00000.453271,-00000.033670,00000.088320
0000000001264,00002.697631,00002.854806,00002.226284,00002.918593,00003.124266,00002.968840,00002.816954,00003.320080,00002.675040,00002.868971,-00003.842800,-00000.021835,-00000.351416,00000.453293,-00000.032632,00000.087962
0000000001265,00002.697728,00002.854806,00002.226290,00002.918513,00003.124256,00002.968690,00002.816906,00003.319923,00002.675417,00002.869044,-00003.837378,-00000.022042,-00000.351768,00000.452624,-00000.031203,00000.088247
0000000001266,00002.698550,00002.854401,00002.227559,00002.919156,00003.125142,00002.968765,00002.817058,00003.320011,00002.676292,00002.869425,-00003.826187,-00000.023118,-00000.353516,00000.447356,-00000.029828,00000.089637
0000000001267,00002.699251,00002.854057,00002.227914,00002.918615,00003.125171,00002.968829,00002.816462,00003.320087,00002.673771,00002.869386,-00003.818474,-00000.024760,-00000.355004,00000.441421,-00000.031197,00000.089731
0000000001268,00002.699207,00002.853355,00002.226952,00002.918296,00003.125348,00002.968658,00002.816346,00003.319931,00002.671758,00002.869353,-00003.815593,-00000.025140,-00000.354749,00000.440126,-00000.032155,00000.088902
0000000001269,00002.700535,00002.853529,00002.226672,00002.917520,00003.126072,00002.968738,00002.815856,00003.320019,00002.668098,00002.869325,-00003.808004,-00000.025756,-00000.353877,00000.439982,-00000.032090,00000.087654
0000000001270,00002.700300,00002.853568,00002.226149,00002.917400,00003.126615,00002.968929,00002.816248,00003.319843,00002.666804,00002.869324,-00003.804087,-00000.026003,-00000.354046,00000.438783,-00000.032267,00000.087247
0000000001271,00002.701103,00002.853710,00002.224537,00002.917483,00003.127150,00002.969331,00002.816135,00003.319944,00002.664243,00002.869300,-00003.799297,-00000.026853,-00000.355093,00000.433397,-00000.033999,00000.088785
0000000001272,00002.701285,00002.853440,00002.223489,00002.917224,00003.127214,00002.969118,00002.816064,00003.319431,00002.662638,00002.869280,-00003.796769,-00000.027451,-00000.355553,00000.429720,-00000.035453,00000.090242
0000000001273,00002.701424,00002.852743,00002.222439,00002.916828,00003.127244,00002.969311,00002.815676,00003.319304,00002.659887,00002.868917,-00003.797759,-00000.028302,-00000.355258,00000.427360,-00000.036199,00000.091183
0000000001274,00002.702059,00002.852645,00002.221378,00002.916996,00003.127323,00002.970382,00002.815648,00003.319485,00002.655090,00002.868954,-00003.806608,-00000.029535,-00000.352497,00000.423673,-00000.036621,00000.091047
0000000001275,00002.702191,00002.852033,00002.220565,00002.916755,00003.127678,00002.970482,00002.815234,00003.319422,00002.652637,00002.868993,-00003.811423,-00000.029968,-00000.352737,00000.422243,-00000.036695,00000.090814
0000000001276,00002.702350,00002.851678,00002.219420,00002.916571,00003.128418,00002.970653,00002.815271,00003.318859,00002.648192,00002.868656,-00003.821868,-00000.029140,-00000.352890,00000.421131,-00000.036317,00000.091096
0000000001277,00002.702390,00002.851873,00002.218672,00002.916280,00003.128792,00002.970726,00002.815295,00003.318426,00002.646495,00002.868702,-00003.827069,-00000.028322,-00000.352066,00000.420601,-00000.036252,00000.091613
0000000001278,00002.702156,00002.852267,00002.217446,00002.916167,00003.129366,00002.971587,00002.815324,00003.316923,00002.643326,00002.868771,-00003.835913,-00000.025924,-00000.352319,00000.419007,-00000.037028,00000.092865
0000000001279,00002.702291,00002.852098,00002.216944,00002.915918,00003.129948,00002.971595,00002.815331,00003.316630,00002.641496,00002.868795,-00003.841796,-00000.025511,-00000.351842,00000.418705,-00000.037120,00000.092467
0000000001280,00002.703161,00002.851734,00002.216701,00002.915496,00003.131077,00002.972326,00002.815717,00003.315757,00002.637620,00002.869938,-00003.858245,-00000.024620,-00000.349951,00000.417756,-00000.039219,00000.090327
0000000001281,00002.703131,00002.851545,00002.216131,00002.915317,00003.131253,00002.972634,00002.815678,00003.314084,00002.635538,00002.869859,-00003.866657,-00000.023435,-00000.348942,00000.418201,-00000.039032,00000.088994
0000000001282,00002.703175,00002.851060,00002.216130,00002.915137,00003.132037,00002.972948,00002.815683,00003.312474,00002.633594,00002.870186,-00003.874063,-00000.022410,-00000.348342,00000.418761,-00000.037378,00000.088142
0000000001283,00002.703551,00002.850850,00002.215282,00002.916645,00003.133218,00002.974204,00002.816380,00003.309680,00002.630530,00002.870759,-00003.888617,-00000.020166,-00000.346971,00000.419255,-00000.036536,00000.086282
0000000001284,00002.703475,00002.850713,00002.215232,00002.916353,00003.133963,00002.974319,00002.816660,00003.308051,00002.629021,00002.872099,-00003.893262,-00000.018582,-00000.346912,00000.419631,-00000.035004,00000.085987
0000000001285,00002.704169,00002.850554,00002.214518,00002.916954,00003.133769,00002.975371,00002.816486,00003.305914,00002.627000,00002.874565,-00003.894803,-00000.016544,-00000.349382,00000.418544,-00000.031612,00000.086261
0000000001286,00002.704142,00002.850518,00002.213892,00002.915918,00003.133681,00002.975511,00002.816806,00003.304604,00002.626064,00002.875693,-00003.894694,-00000.015649,-00000.350656,00000.417910,-00000.029836,00000.086399
0000000001287,00002.704033,00002.850056,00002.213547,00002.915652,00003.133967,00002.975541,00002.816700,00003.303370,00002.625279,00002.876664,-00003.896114,-00000.014447,-00000.351485,00000.417619,-00000.029088,00000.086858
0000000001288,00002.705007,00002.848544,00002.213445,00002.915270,00003.134498,00002.975685,00002.816520,00003.301567,00002.624177,00002.879177,-00003.895780,-00000.012299,-00000.354001,00000.416105,-00000.029479,00000.089905
0000000001289,00002.705835,00002.846168,00002.213359,00002.916032,00003.134224,00002.976171,00002.816367,00003.300394,00002.622876,00002.880953,-00003.895132,-00000.009382,-00000.355055,00000.415542,-00000.030175,00000.092862
0000000001290,00002.706398,00002.844902,00002.213599,00002.916174,00003.134124,00002.976204,00002.816301,00003.299486,00002.622298,00002.881965,-00003.892796,-00000.007895,-00000.354389,00000.414788,-00000.030439,00000.093628
0000000001291,00002.708108,00002.843431,00002.214215,00002.917527,00003.134269,00002.976975,00002.815817,00003.298623,00002.622002,00002.882964,-00003.886788,-00000.005632,-00000.352120,00000.412970,-00000.030267,00000.095668
0000000001292,00002.708901,00002.842424,00002.214258,00002.918014,00003.134102,00002.977353,00002.815762,00003.298237,00002.621860,00002.883389,-00003.883875,-00000.004475,-00000.351342,00000.411189,-00000.031742,00000.096958
0000000001293,00002.709564,00002.841090,00002.214015,00002.917954,00003.134029,00002.977632,00002.815768,00003.297888,00002.621750,00002.884177,-00003.884575,-00000.003344,-00000.349825,00000.409608,-00000.034110,00000.097405
0000000001294,00002.710440,00002.839822,00002.213844,00002.918318,00003.133825,00002.978191,00002.815364,00003.296900,00002.620810,00002.884847,-00003.886319,00000.000056,-00000.347509,00000.407835,-00000.037382,00000.098884
0000000001295,00002.710652,00002.838730,00002.213875,00002.918724,00003.132978,00002.978465,00002.815378,00003.296983,00002.620761,00002.885155,-00003.884031,00000.001875,-00000.346690,00000.407216,-00000.037255,00000.099147
0000000001296,00002.711004,00002.837450,00002.213362,00002.918973,00003.132205,00002.978900,00002.815031,00003.295767,00002.620693,00002.885316,-00003.877875,00000.006675,-00000.344840,00000.405435,-00000.036431,00000.099278
0000000001297,00002.711150,00002.836482,00002.213575,00002.919616,00003.131852,00002.979072,00002.814727,00003.295651,00002.620309,00002.885539,-00003.875998,00000.010331,-00000.343441,00000.404677,-00000.037328,00000.099925
0000000001298,00002.711303,00002.835999,00002.213651,00002.920273,00003.131910,00002.979271,00002.815099,00003.295094,00002.620273,00002.886179,-00003.874448,00000.015478,-00000.341814,00000.403920,-00000.038996,00000.100479
0000000001299,00002.711558,00002.834763,00002.213897,00002.921017,00003.131658,00002.979949,00002.815520,00003.294521,00002.620278,00002.886551,-00003.865000,00000.028777,-00000.339963,00000.399001,-00000.040816,00000.102951
0000000001300,00002.711718,00002.834007,00002.214414,00002.921121,00003.131039,00002.980074,00002.815191,00003.294129,00002.619945,00002.886767,-00003.857850,00000.035240,-00000.340401,00000.395765,-00000.042137,00000.104038
0000000001301,00002.711186,00002.833430,00002.214547,00002.921739,00003.131280,00002.979907,00002.815598,00003.293337,00002.619999,00002.886689,-00003.843614,00000.047777,-00000.342388,00000.391334,-00000.046392,00000.106707
0000000001302,00002.711289,00002.832815,00002.214594,00002.921827,00003.130953,00002.980400,00002.815565,00003.293310,00002.619977,00002.887192,-00003.834702,00000.053927,-00000.343454,00000.389706,-00000.048131,00000.108663
0000000001303,00002.711908,00002.832415,00002.214700,00002.923066,00003.130481,00002.980911,00002.815916,00003.294816,00002.621477,00002.887413,-00003.808308,00000.062234,-00000.347890,00000.385450,-00000.049681,00000.110644
0000000001304,00002.713494,00002.830867,00002.214784,00002.923040,00003.129213,00002.980639,00002.816174,00003.296265,00002.623013,00002.887661,-00003.766915,00000.071857,-00000.353534,00000.376761,-00000.051168,00000.112369
0000000001305,00002.713423,00002.830394,00002.214136,00002.923010,00003.127911,00002.980388,00002.816435,00003.298057,00002.623699,00002.887813,-00003.741895,00000.077497,-00000.355745,00000.372616,-00000.050815,00000.113436
0000000001306,00002.714088,00002.829992,00002.215035,00002.923710,00003.126440,00002.980537,00002.816657,00003.299583,00002.624645,00002.887942,-00003.722409,00000.082662,-00000.356902,00000.367999,-00000.050515,00000.112531
0000000001307,00002.714041,00002.829267,00002.215094,00002.923219,00003.126170,00002.980567,00002.816192,00003.299081,00002.624613,00002.888378,-00003.714530,00000.084596,-00000.357616,00000.365890,-00000.051515,00000.112125
0000000001308,00002.713526,00002.828669,00002.214763,00002.923525,00003.124958,00002.980327,00002.816450,00003.297553,00002.624698,00002.887335,-00003.697662,00000.088705,-00000.358857,00000.363362,-00000.053650,00000.111415
0000000001309,00002.713068,00002.828014,00002.214384,00002.922744,00003.123705,00002.980410,00002.816389,00003.296924,00002.624432,00002.886331,-00003.688742,00000.090493,-00000.359760,00000.362899,-00000.054380,00000.111105
0000000001310,00002.713424,00002.826151,00002.214159,00002.922395,00003.123222,00002.980556,00002.815892,00003.296442,00002.624181,00002.886318,-00003.669541,00000.092999,-00000.361771,00000.359727,-00000.056452,00000.110546
0000000001311,00002.713440,00002.825712,00002.213932,00002.922047,00003.122739,00002.980258,00002.815876,00003.295815,00002.624215,00002.886470,-00003.661983,00000.093730,-00000.362466,00000.357509,-00000.057015,00000.110296
0000000001312,00002.713726,00002.824929,00002.213966,00002.922098,00003.122811,00002.979955,00002.815469,00003.295669,00002.623968,00002.886669,-00003.655372,00000.094408,-00000.363120,00000.355213,-00000.057127,00000.109708
0000000001313,00002.713621,00002.824613,00002.212714,00002.921120,00003.122099,00002.979443,00002.815835,00003.295011,00002.623786,00002.885517,-00003.642947,00000.094881,-00000.363543,00000.353909,-00000.054437,00000.108632
0000000001314,00002.713633,00002.824295,00002.212913,00002.921230,00003.121748,00002.979589,00002.815461,00003.294865,00002.623502,00002.884230,-00003.640117,00000.095101,-00000.363375,00000.353645,-00000.053973,00000.108141
0000000001315,00002.712453,00002.824074,00002.212543,00002.920744,00003.121194,00002.979132,00002.815102,00003.294327,00002.622301,00002.882353,-00003.635403,00000.095472,-00000.365212,00000.351123,-00000.056105,00000.108024
0000000001316,00002.712058,00002.824170,00002.212756,00002.920558,00003.121338,00002.978945,00002.815485,00003.294282,00002.621794,00002.881687,-00003.633440,00000.095627,-00000.365607,00000.349678,-00000.056713,00000.108024
0000000001317,00002.711838,00002.823605,00002.213135,00002.919809,00003.120845,00002.978583,00002.815485,00003.294193,00002.621210,00002.880187,-00003.631532,00000.096644,-00000.365297,00000.348472,-00000.055898,00000.105021
0000000001318,00002.711991,00002.823671,00002.213304,00002.919977,00003.120575,00002.978774,00002.815100,00003.294149,00002.621134,00002.879756,-00003.630350,00000.096727,-00000.366090,00000.347929,-00000.056054,00000.102921
0000000001319,00002.712013,00002.823486,00002.213095,00002.919171,00003.120787,00002.979001,00002.814760,00003.294480,00002.621076,00002.879274,-00003.629545,00000.096422,-00000.366848,00000.346357,-00000.056293,00000.101377
0000000001320,00002.711437,00002.823022,00002.212336,00002.919353,00003.120376,00002.978631,00002.815231,00003.293636,00002.620961,00002.878133,-00003.626040,00000.094782,-00000.369256,00000.340565,-00000.056992,00000.100814
0000000001321,00002.711239,00002.823125,00002.211786,00002.919529,00003.120126,00002.978460,00002.815207,00003.293241,00002.620907,00002.877458,-00003.622227,00000.093498,-00000.371228,00000.337230,-00000.056325,00000.101306
0000000001322,00002.711309,00002.823353,00002.211326,00002.919872,00003.120025,00002.979042,00002.815269,00003.293280,00002.620864,00002.877162,-00003.619065,00000.092660,-00000.372394,00000.334184,-00000.056136,00000.101423
0000000001323,00002.711926,00002.823635,00002.211918,00002.919587,00003.120090,00002.978303,00002.815665,00003.292614,00002.621144,00002.876335,-00003.611676,00000.091579,-00000.374341,00000.328026,-00000.056496,00000.100853
0000000001324,00002.712455,00002.823709,00002.211412,00002.919768,00003.119492,00002.978179,00002.815593,00003.292328,00002.621050,00002.875792,-00003.606065,00000.090178,-00000.375932,00000.325246,-00000.057773,00000.101318
0000000001325,00002.713177,00002.823512,00002.211696,00002.919708,00003.119419,00002.978399,00002.815276,00003.292773,00002.621020,00002.875631,-00003.599219,00000.088483,-00000.377811,00000.322784,-00000.058253,00000.102182
0000000001326,00002.713879,00002.823044,00002.210782,00002.919448,00003.118485,00002.978482,00002.814944,00003.292545,00002.620914,00002.875032,-00003.588613,00000.085483,-00000.381492,00000.318684,-00000.058661,00000.102225
0000000001327,00002.714316,00002.822789,00002.210106,00002.919324,00003.118415,00002.978392,00002.814530,00003.292338,00002.620846,00002.874639,-00003.583929,00000.083796,-00000.383316,00000.315890,-00000.060111,00000.101527
0000000001328,00002.715211,00002.822429,00002.209065,00002.918758,00003.118719,00002.978838,00002.813947,00003.292175,00002.620766,00002.874187,-00003.575960,00000.080043,-00000.386904,00000.311001,-00000.063144,00000.099128
0000000001329,00002.715294,00002.821945,00002.208978,00002.918621,00003.118720,00002.978920,00002.813442,00003.292186,00002.620384,00002.874088,-00003.572625,00000.078016,-00000.388689,00000.308864,-00000.064730,00000.097483
0000000001330,00002.716407,00002.821347,00002.208831,00002.918885,00003.118253,00002.979288,00002.812295,00003.291683,00002.620372,00002.873356,-00003.562709,00000.075122,-00000.391840,00000.304657,-00000.067440,00000.094959
0000000001331,00002.717402,00002.820827,00002.209131,00002.919935,00003.117854,00002.979541,00002.811685,00003.293007,00002.620693,00002.872750,-00003.554748,00000.073818,-00000.393229,00000.302933,-00000.068234,00000.094366
0000000001332,00002.718442,00002.820839,00002.208705,00002.921287,00003.117492,00002.979601,00002.811319,00003.294157,00002.621088,00002.872732,-00003.547012,00000.072659,-00000.394523,00000.301439,-00000.068295,00000.094262
0000000001333,00002.719087,00002.820406,00002.208961,00002.922243,00003.117571,00002.978779,00002.811576,00003.295900,00002.621698,00002.872927,-00003.527481,00000.070561,-00000.397895,00000.297610,-00000.069023,00000.094394
0000000001334,00002.719499,00002.820392,00002.209179,00002.922695,00003.117591,00002.978653,00002.811442,00003.296913,00002.622293,00002.873106,-00003.517319,00000.069616,-00000.399573,00000.295327,-00000.069291,00000.093856
0000000001335,00002.720712,00002.820388,00002.209365,00002.923805,00003.116929,00002.978335,00002.810956,00003.298973,00002.622723,00002.872882,-00003.496037,00000.067972,-00000.402194,00000.290593,-00000.069145,00000.091509
0000000001336,00002.721191,00002.820395,00002.209056,00002.924422,00003.117022,00002.978209,00002.810947,00003.299682,00002.623330,00002.872563,-00003.485376,00000.067256,-00000.402793,00000.288527,-00000.069137,00000.089377
0000000001337,00002.721745,00002.820022,00002.209885,00002.925112,00003.116728,00002.978427,00002.810541,00003.300725,00002.624178,00002.873055,-00003.474653,00000.066208,-00000.403700,00000.286201,-00000.068659,00000.087335
0000000001338,00002.722624,00002.819711,00002.210329,00002.925862,00003.116195,00002.978505,00002.809826,00003.301855,00002.625779,00002.872839,-00003.457538,00000.063982,-00000.405344,00000.281736,-00000.067519,00000.084143
0000000001339,00002.722608,00002.819353,00002.210414,00002.925221,00003.116316,00002.978051,00002.809873,00003.302369,00002.626527,00002.872916,-00003.448724,00000.062792,-00000.406450,00000.279205,-00000.066479,00000.082960
0000000001340,00002.722996,00002.818779,00002.209327,00002.925592,00003.116207,00002.977822,00002.809257,00003.303980,00002.627416,00002.872721,-00003.427484,00000.060710,-00000.408774,00000.273603,-00000.063123,00000.081145
0000000001341,00002.723392,00002.818548,00002.209375,00002.924976,00003.115662,00002.977648,00002.809007,00003.304669,00002.628303,00002.872499,-00003.415504,00000.059438,-00000.410005,00000.271287,-00000.060859,00000.080094
0000000001342,00002.724026,00002.818093,00002.209531,00002.924295,00003.115287,00002.977116,00002.808519,00003.306300,00002.628565,00002.872365,-00003.394487,00000.057130,-00000.412163,00000.266863,-00000.056889,00000.077980
0000000001343,00002.724279,00002.817873,00002.209993,00002.924216,00003.114691,00002.976736,00002.808286,00003.306464,00002.629126,00002.872050,-00003.383462,00000.055724,-00000.413108,00000.263996,-00000.055875,00000.077667
0000000001344,00002.724566,00002.817706,00002.210753,00002.924078,00003.114605,00002.976301,00002.808467,00003.307326,00002.629514,00002.872252,-00003.371153,00000.054440,-00000.414364,00000.261283,-00000.054960,00000.076905
0000000001345,00002.725025,00002.816651,00002.212156,00002.924619,00003.114750,00002.975607,00002.808060,00003.308563,00002.631410,00002.872518,-00003.345847,00000.053600,-00000.416599,00000.257621,-00000.051141,00000.075265
0000000001346,00002.725779,00002.816115,00002.212624,00002.924355,00003.114148,00002.975379,00002.807713,00003.309252,00002.632298,00002.872382,-00003.325392,00000.055788,-00000.418502,00000.253778,-00000.048615,00000.073143
0000000001347,00002.726290,00002.815716,00002.212763,00002.923897,00003.114459,00002.975453,00002.807523,00003.309879,00002.632553,00002.872088,-00003.319219,00000.058233,-00000.418623,00000.251910,-00000.048652,00000.072432
0000000001348,00002.727219,00002.815682,00002.212778,00002.923014,00003.114626,00002.975248,00002.807619,00003.310373,00002.632909,00002.872016,-00003.307803,00000.063723,-00000.417686,00000.248553,-00000.049762,00000.071819
0000000001349,00002.727277,00002.815634,00002.212328,00002.922540,00003.114904,00002.974602,00002.807893,00003.310648,00002.633027,00002.871859,-00003.301779,00000.065644,-00000.417835,00000.247050,-00000.049699,00000.070779
0000000001350,00002.728059,00002.814886,00002.211682,00002.921496,00003.115005,00002.974161,00002.807208,00003.311753,00002.632587,00002.871458,-00003.287151,00000.067492,-00000.418829,00000.245505,-00000.048476,00000.069324
0000000001351,00002.728011,00002.815320,00002.211150,00002.921259,00003.115251,00002.973944,00002.807462,00003.311823,00002.633161,00002.871230,-00003.280555,00000.068291,-00000.419258,00000.245023,-00000.047736,00000.069256
0000000001352,00002.728684,00002.814619,00002.210317,00002.920406,00003.115663,00002.973600,00002.807204,00003.312390,00002.632338,00002.870197,-00003.273437,00000.068657,-00000.419677,00000.244142,-00000.047530,00000.068390
0000000001353,00002.728894,00002.814386,00002.209608,00002.919316,00003.114925,00002.973308,00002.806985,00003.312511,00002.632363,00002.868955,-00003.267378,00000.067517,-00000.420760,00000.241941,-00000.048444,00000.066565
0000000001354,00002.729202,00002.814082,00002.209286,00002.918797,00003.114708,00002.973509,00002.806905,00003.312987,00002.632510,00002.868618,-00003.263669,00000.067198,-00000.421108,00000.240981,-00000.048427,00000.065525
0000000001355,00002.729335,00002.814291,00002.208367,00002.917584,00003.114838,00002.973956,00002.806730,00003.313019,00002.632509,00002.867248,-00003.258337,00000.067001,-00000.420527,00000.240338,-00000.049933,00000.064488
0000000001356,00002.729951,00002.814018,00002.208544,00002.917707,00003.114796,00002.974244,00002.806639,00003.313063,00002.632348,00002.866997,-00003.257426,00000.066339,-00000.420035,00000.240231,-00000.052115,00000.065193
0000000001357,00002.729811,00002.814107,00002.207948,00002.918365,00003.114948,00002.973973,00002.806581,00003.313046,00002.632509,00002.866444,-00003.255974,00000.065382,-00000.420032,00000.239791,-00000.054480,00000.066145
0000000001358,00002.729610,00002.813511,00002.207735,00002.918107,00003.114912,00002.973856,00002.806141,00003.313446,00002.632372,00002.865868,-00003.256650,00000.064093,-00000.420339,00000.238974,-00000.057063,00000.067471
0000000001359,00002.729853,00002.813586,00002.207591,00002.917942,00003.114679,00002.973988,00002.806091,00003.313431,00002.632145,00002.865034,-00003.256865,00000.063279,-00000.420700,00000.237874,-00000.060528,00000.068282
0000000001360,00002.730045,00002.813442,00002.207410,00002.917359,00003.114649,00002.973888,00002.805717,00003.313773,00002.632029,00002.864907,-00003.254901,00000.062544,-00000.421323,00000.236816,-00000.063089,00000.068685
0000000001361,00002.730252,00002.813144,00002.207287,00002.917219,00003.114087,00002.974001,00002.805675,00003.314123,00002.632199,00002.864560,-00003.249642,00000.062213,-00000.421630,00000.236604,-00000.063137,00000.068286
0000000001362,00002.730415,00002.813383,00002.207496,00002.917086,00003.114062,00002.973915,00002.805719,00003.314050,00002.632462,00002.864089,-00003.245067,00000.061588,-00000.422161,00000.236429,-00000.062778,00000.067904
0000000001363,00002.729866,00002.813492,00002.207391,00002.916603,00003.113946,00002.973649,00002.806046,00003.313985,00002.632245,00002.863793,-00003.243130,00000.061306,-00000.422423,00000.236612,-00000.062818,00000.067928
0000000001364,00002.729642,00002.813696,00002.207206,00002.916853,00003.113924,00002.973576,00002.806446,00003.313924,00002.632469,00002.863392,-00003.243227,00000.061137,-00000.422512,00000.236463,-00000.063964,00000.069053
0000000001365,00002.730263,00002.813426,00002.207480,00002.916805,00003.113826,00002.973712,00002.805999,00003.314231,00002.631921,00002.863141,-00003.244480,00000.061260,-00000.422734,00000.236256,-00000.066175,00000.070887
0000000001366,00002.730798,00002.813237,00002.207685,00002.917017,00003.113445,00002.974013,00002.805977,00003.314542,00002.631749,00002.862799,-00003.244562,00000.061116,-00000.422448,00000.236492,-00000.067513,00000.072571
0000000001367,00002.730964,00002.813370,00002.207918,00002.916976,00003.113361,00002.973765,00002.806321,00003.314441,00002.632008,00002.862585,-00003.241275,00000.060495,-00000.423000,00000.237404,-00000.067581,00000.073770
0000000001368,00002.731057,00002.813209,00002.208093,00002.916794,00003.113037,00002.974022,00002.806303,00003.314705,00002.631861,00002.862294,-00003.238443,00000.060009,-00000.423481,00000.239419,-00000.066544,00000.074115
0000000001369,00002.730835,00002.813322,00002.207928,00002.916759,00003.112603,00002.973811,00002.806233,00003.314619,00002.631719,00002.862112,-00003.237096,00000.059481,-00000.423951,00000.241284,-00000.065151,00000.075135
0000000001370,00002.730551,00002.813185,00002.207714,00002.916605,00003.112326,00002.973666,00002.806217,00003.314481,00002.631232,00002.861864,-00003.235410,00000.058704,-00000.424361,00000.242273,-00000.064630,00000.076880
0000000001371,00002.730725,00002.812919,00002.207574,00002.916575,00003.111957,00002.973850,00002.806158,00003.314771,00002.631110,00002.862072,-00003.233175,00000.057166,-00000.425124,00000.242773,-00000.064533,00000.078474
0000000001372,00002.730483,00002.813165,00002.207392,00002.916443,00003.112084,00002.973727,00002.806145,00003.315016,00002.631421,00002.861861,-00003.228112,00000.055780,-00000.426199,00000.242889,-00000.064815,00000.079234
0000000001373,00002.730269,00002.813301,00002.207273,00002.916055,00003.111770,00002.973520,00002.806094,00003.314900,00002.632043,00002.861675,-00003.221856,00000.054470,-00000.427211,00000.242952,-00000.064732,00000.079140
0000000001374,00002.730426,00002.813510,00002.207118,00002.916668,00003.111153,00002.973778,00002.806083,00003.315109,00002.632308,00002.861496,-00003.217546,00000.053290,-00000.427763,00000.243414,-00000.064247,00000.079061
0000000001375,00002.730606,00002.813626,00002.207016,00002.916701,00003.110885,00002.973965,00002.806403,00003.315010,00002.632475,00002.860975,-00003.215123,00000.052175,-00000.427899,00000.243830,-00000.064539,00000.079707
0000000001376,00002.731102,00002.813804,00002.206884,00002.916497,00003.110360,00002.974185,00002.806030,00003.315188,00002.631975,00002.860822,-00003.215081,00000.050808,-00000.428006,00000.244586,-00000.065214,00000.081091
0000000001377,00002.731256,00002.813540,00002.206798,00002.916162,00003.109769,00002.974344,00002.805577,00003.315467,00002.631391,00002.860741,-00003.216646,00000.049496,-00000.427759,00000.246028,-00000.065826,00000.083092
0000000001378,00002.730953,00002.813692,00002.206685,00002.915989,00003.110410,00002.974168,00002.805985,00003.315255,00002.631328,00002.860611,-00003.216611,00000.048695,-00000.427125,00000.247760,-00000.065312,00000.084996
0000000001379,00002.730721,00002.813467,00002.206612,00002.915704,00003.110270,00002.973941,00002.805963,00003.315130,00002.631194,00002.860542,-00003.212864,00000.047578,-00000.427277,00000.248625,-00000.064019,00000.085973
0000000001380,00002.730825,00002.813234,00002.206516,00002.915556,00003.110091,00002.973791,00002.805947,00003.314950,00002.631140,00002.860794,-00003.206667,00000.046170,-00000.427826,00000.249375,-00000.062493,00000.086143
0000000001381,00002.730628,00002.813405,00002.206091,00002.915313,00003.109609,00002.973598,00002.805928,00003.314843,00002.631389,00002.860373,-00003.200212,00000.044856,-00000.428318,00000.249748,-00000.060304,00000.085887
0000000001382,00002.730354,00002.813206,00002.206009,00002.915188,00003.109093,00002.973470,00002.805552,00003.314689,00002.631343,00002.859862,-00003.195662,00000.043295,-00000.428059,00000.250023,-00000.058643,00000.086394
0000000001383,00002.730186,00002.813352,00002.206010,00002.915344,00003.108683,00002.973306,00002.805535,00003.314236,00002.631555,00002.859503,-00003.191618,00000.041814,-00000.427028,00000.250341,-00000.057867,00000.087264
0000000001384,00002.730316,00002.813183,00002.205940,00002.915600,00003.108606,00002.973197,00002.805578,00003.314468,00002.632242,00002.859431,-00003.185930,00000.040485,-00000.426082,00000.250575,-00000.058267,00000.088059
0000000001385,00002.730173,00002.813307,00002.205578,00002.916095,00003.107894,00002.973057,00002.805564,00003.314807,00002.635325,00002.859126,-00003.177046,00000.039224,-00000.425566,00000.249757,-00000.059783,00000.088800
0000000001386,00002.730283,00002.813163,00002.205519,00002.916313,00003.107829,00002.972965,00002.805964,00003.315368,00002.639537,00002.859427,-00003.168213,00000.037730,-00000.425849,00000.248505,-00000.063026,00000.089476
0000000001387,00002.730887,00002.813268,00002.205936,00002.916735,00003.107223,00002.973208,00002.805952,00003.316019,00002.641798,00002.859167,-00003.162826,00000.036294,-00000.426499,00000.246721,-00000.066856,00000.090470
0000000001388,00002.730618,00002.813146,00002.206249,00002.917283,00003.106805,00002.972767,00002.805929,00003.316497,00002.642482,00002.859061,-00003.161112,00000.035022,-00000.427828,00000.244930,-00000.070705,00000.091409
0000000001389,00002.730407,00002.813236,00002.205878,00002.917643,00003.105926,00002.972611,00002.805918,00003.316689,00002.642593,00002.858840,-00003.161605,00000.033799,-00000.429470,00000.243411,-00000.073966,00000.091166
0000000001390,00002.730541,00002.813131,00002.205782,00002.917384,00003.105207,00002.972598,00002.805536,00003.317095,00002.642813,00002.858749,-00003.161234,00000.032717,-00000.431690,00000.241886,-00000.076517,00000.090151
0000000001391,00002.730723,00002.813208,00002.205829,00002.917327,00003.104459,00002.972466,00002.805528,00003.317258,00002.643270,00002.858561,-00003.160203,00000.032401,-00000.433813,00000.240592,-00000.077479,00000.089219
0000000001392,00002.730837,00002.813119,00002.206110,00002.917106,00003.103847,00002.972455,00002.805565,00003.317604,00002.643457,00002.858484,-00003.158436,00000.032205,-00000.435703,00000.239294,-00000.077111,00000.087992
0000000001393,00002.730630,00002.813184,00002.206513,00002.916695,00003.103573,00002.972342,00002.805920,00003.317743,00002.643846,00002.858323,-00003.158284,00000.032662,-00000.437873,00000.237830,-00000.077205,00000.087199
0000000001394,00002.730727,00002.813108,00002.207114,00002.917596,00003.103052,00002.972332,00002.805952,00003.318038,00002.643642,00002.857895,-00003.162221,00000.033584,-00000.439481,00000.236725,-00000.077617,00000.086517
0000000001395,00002.730551,00002.812438,00002.207095,00002.916883,00003.102456,00002.971874,00002.805529,00003.318156,00002.642523,00002.858121,-00003.166808,00000.034699,-00000.440966,00000.235842,-00000.078422,00000.086930
0000000001396,00002.730271,00002.812737,00002.206881,00002.916924,00003.101650,00002.971866,00002.805556,00003.318044,00002.642349,00002.857756,-00003.166532,00000.035846,-00000.441973,00000.234901,-00000.079136,00000.088527
0000000001397,00002.730483,00002.812166,00002.207590,00002.917043,00003.101505,00002.971475,00002.805922,00003.318507,00002.645749,00002.857949,-00003.161367,00000.037158,-00000.442874,00000.233786,-00000.079458,00000.089966
0000000001398,00002.730245,00002.811695,00002.207771,00002.916715,00003.100819,00002.970743,00002.805945,00003.318775,00002.649955,00002.858001,-00003.153151,00000.039222,-00000.443368,00000.231897,-00000.079340,00000.091326
0000000001399,00002.730063,00002.811209,00002.208375,00002.917542,00003.100333,00002.970773,00002.805530,00003.319532,00002.653213,00002.858165,-00003.144400,00000.041065,-00000.443772,00000.229860,-00000.079252,00000.093277
0000000001400,00002.730223,00002.810445,00002.208892,00002.918714,00003.099748,00002.970875,00002.805550,00003.320123,00002.656793,00002.858210,-00003.134503,00000.043185,-00000.443830,00000.227889,-00000.079877,00000.095522
0000000001401,00002.730068,00002.810031,00002.210131,00002.920869,00003.099335,00002.970538,00002.805560,00003.320405,00002.660292,00002.858350,-00003.119435,00000.045842,-00000.443812,00000.225791,-00000.081254,00000.098272
0000000001402,00002.730204,00002.809744,00002.212022,00002.923681,00003.098475,00002.970625,00002.805939,00003.320907,00002.664791,00002.858388,-00003.095773,00000.049099,-00000.443861,00000.223388,-00000.082874,00000.100909
0000000001403,00002.730435,00002.808666,00002.214166,00002.927329,00003.096671,00002.970701,00002.805585,00003.322598,00002.671035,00002.858506,-00003.057913,00000.052812,-00000.444208,00000.220877,-00000.084408,00000.103612
0000000001404,00002.732002,00002.808058,00002.218315,00002.934076,00003.094125,00002.970412,00002.805545,00003.325203,00002.679581,00002.858901,-00002.984801,00000.056672,-00000.446064,00000.217017,-00000.084337,00000.106946
0000000001405,00002.734738,00002.807141,00002.227396,00002.942987,00003.092227,00002.970114,00002.805606,00003.328819,00002.688161,00002.860091,-00002.888356,00000.060559,-00000.448173,00000.212340,-00000.081290,00000.111061
0000000001406,00002.736798,00002.806261,00002.237459,00002.953447,00003.088608,00002.969868,00002.805573,00003.332125,00002.697251,00002.861879,-00002.782581,00000.064934,-00000.449028,00000.206514,-00000.076512,00000.115350
0000000001407,00002.738764,00002.804391,00002.248091,00002.964298,00003.084453,00002.969614,00002.805625,00003.335567,00002.705644,00002.863980,-00002.672543,00000.070782,-00000.447921,00000.201081,-00000.072830,00000.119942
0000000001408,00002.740155,00002.801828,00002.258472,00002.975742,00003.079558,00002.969042,00002.806321,00003.338018,00002.713744,00002.865501,-00002.561092,00000.078134,-00000.446109,00000.196122,-00000.072391,00000.123593
0000000001409,00002.742192,00002.798786,00002.270063,00002.987519,00003.074932,00002.968463,00002.807091,00003.341311,00002.721978,00002.868378,-00002.449276,00000.085289,-00000.444078,00000.190771,-00000.076149,00000.125688
0000000001410,00002.744464,00002.795878,00002.282890,00003.004517,00003.069314,00002.968339,00002.807685,00003.344849,00002.730325,00002.871488,-00002.341700,00000.092274,-00000.442173,00000.185098,-00000.083757,00000.126257
0000000001411,00002.747286,00002.792562,00002.295297,00003.022162,00003.063925,00002.967846,00002.808703,00003.348014,00002.739873,00002.874662,-00002.237442,00000.099091,-00000.440082,00000.179092,-00000.091309,00000.124412
0000000001412,00002.749583,00002.790450,00002.308394,00003.038809,00003.059143,00002.967378,00002.810296,00003.350663,00002.749519,00002.877309,-00002.136430,00000.105762,-00000.438097,00000.172811,-00000.098149,00000.120543
0000000001413,00002.751623,00002.787264,00002.320770,00003.054918,00003.054555,00002.966595,00002.811888,00003.352996,00002.758736,00002.880375,-00002.036791,00000.111565,-00000.436316,00000.166247,-00000.102039,00000.114982
0000000001414,00002.753216,00002.783652,00002.332283,00003.069453,00003.050846,00002.965108,00002.813608,00003.355251,00002.766947,00002.883354,-00001.942092,00000.116882,-00000.434626,00000.159449,-00000.104959,00000.108786
0000000001415,00002.754589,00002.779489,00002.342818,00003.083529,00003.046941,00002.963717,00002.815689,00003.357236,00002.775156,00002.886326,-00001.851828,00000.121822,-00000.432385,00000.152773,-00000.106819,00000.102238
0000000001416,00002.755945,00002.775325,00002.352981,00003.096628,00003.043784,00002.962450,00002.817878,00003.359156,00002.782872,00002.889951,-00001.765043,00000.126711,-00000.429858,00000.146986,-00000.107491,00000.095874
0000000001417,00002.757840,00002.770693,00002.362676,00003.109337,00003.040096,00002.961266,00002.819287,00003.361209,00002.789498,00002.893207,-00001.681671,00000.131642,-00000.427225,00000.141302,-00000.107624,00000.089575
0000000001418,00002.759720,00002.766060,00002.371691,00003.120488,00003.037046,00002.960188,00002.821151,00003.363206,00002.796429,00002.896655,-00001.603075,00000.136167,-00000.424711,00000.135650,-00000.106382,00000.084520
0000000001419,00002.760971,00002.762480,00002.380307,00003.131307,00003.034269,00002.959179,00002.823076,00003.364954,00002.803158,00002.899427,-00001.527747,00000.140365,-00000.422106,00000.130086,-00000.103955,00000.080608
0000000001420,00002.762571,00002.758899,00002.387981,00003.140437,00003.030584,00002.958262,00002.824299,00003.366654,00002.809784,00002.902362,-00001.455759,00000.144580,-00000.419240,00000.124911,-00000.100721,00000.077394
0000000001421,00002.764361,00002.756939,00002.396041,00003.150736,00003.027495,00002.958129,00002.825938,00003.368505,00002.816238,00002.905085,-00001.385827,00000.148153,-00000.416660,00000.120175,-00000.097567,00000.073701
0000000001422,00002.766449,00002.754978,00002.403662,00003.159597,00003.024720,00002.957348,00002.828068,00003.369952,00002.822242,00002.907947,-00001.319102,00000.151378,-00000.414221,00000.115770,-00000.094451,00000.069513
0000000001423,00002.768336,00002.752947,00002.410524,00003.168001,00003.022090,00002.956872,00002.829463,00003.371528,00002.828099,00002.910990,-00001.255578,00000.153695,-00000.412024,00000.111737,-00000.091403,00000.064918
0000000001424,00002.770839,00002.751278,00002.417012,00003.175545,00003.019366,00002.956207,00002.830914,00003.372760,00002.833573,00002.913426,-00001.194785,00000.155715,-00000.409947,00000.108350,-00000.088025,00000.060628
0000000001425,00002.772808,00002.749912,00002.423216,00003.181974,00003.017127,00002.955439,00002.832464,00003.374101,00002.838196,00002.916017,-00001.137079,00000.157687,-00000.408440,00000.105643,-00000.084704,00000.056716
0000000001426,00002.774576,00002.748854,00002.429103,00003.188395,00003.014807,00002.954873,00002.834062,00003.375150,00002.842856,00002.918454,-00001.083148,00000.159407,-00000.406672,00000.103122,-00000.081466,00000.053064
0000000001427,00002.776252,00002.747691,00002.434384,00003.194231,00003.012176,00002.954219,00002.835382,00003.375566,00002.847517,00002.920659,-00001.032210,00000.160723,-00000.405389,00000.101180,-00000.079727,00000.049371
0000000001428,00002.777757,00002.746428,00002.439395,00003.199698,00003.009839,00002.953737,00002.836742,00003.376459,00002.851847,00002.922733,-00000.984485,00000.161824,-00000.403884,00000.099397,-00000.078059,00000.045899
0000000001429,00002.779547,00002.745438,00002.444254,00003.204666,00003.008324,00002.953543,00002.838228,00003.377176,00002.855452,00002.924974,-00000.940032,00000.162582,-00000.402429,00000.098107,-00000.076579,00000.042755
0000000001430,00002.781191,00002.743999,00002.448883,00003.209320,00003.006697,00002.953133,00002.839023,00003.377936,00002.858412,00002.927102,-00000.899041,00000.163157,-00000.400785,00000.097315,-00000.074796,00000.039799
0000000001431,00002.782352,00002.742794,00002.453019,00003.213912,00003.005045,00002.952605,00002.840289,00003.378546,00002.861482,00002.929010,-00000.860473,00000.163801,-00000.399184,00000.096579,-00000.072448,00000.037849
0000000001432,00002.783389,00002.741932,00002.456959,00003.217874,00003.003660,00002.951893,00002.841691,00003.379194,00002.864364,00002.930822,-00000.823763,00000.164291,-00000.398147,00000.095542,-00000.068753,00000.036421
0000000001433,00002.784740,00002.740905,00002.460481,00003.221057,00003.002253,00002.951807,00002.842406,00003.380076,00002.866977,00002.932445,-00000.789479,00000.164477,-00000.397146,00000.094553,-00000.064577,00000.035123
