0000000002063,00002.905886,00002.779494,00002.520124,00003.308719,00003.022692,00002.951218,00002.872206,00003.405247,00002.878606,00003.017382,-00000.349044,-00000.028009,-00000.524606,-00000.075843,-00000.066451,00000.020076
0000000002064,00002.906155,00002.779216,00002.520048,00003.308737,00003.022540,00002.951277,00002.871938,00003.405320,00002.878278,00003.017617,-00000.349202,-00000.028111,-00000.524769,-00000.076022,-00000.066615,00000.019312
0000000002065,00002.905867,00002.778679,00002.519784,00003.308297,00003.022718,00002.950988,00002.872116,00003.405345,00002.878290,00003.017835,-00000.349020,-00000.028560,-00000.524960,-00000.076174,-00000.066728,00000.018542
0000000002066,00002.905734,00002.778805,00002.519719,00003.307949,00003.022951,00002.950676,00002.872251,00003.405045,00002.878374,00003.018035,-00000.349155,-00000.028647,-00000.524736,-00000.075964,-00000.067230,00000.017891
0000000002067,00002.905851,00002.778710,00002.519132,00003.308300,00003.023103,00002.951156,00002.872403,00003.405067,00002.878384,00003.017858,-00000.349000,-00000.028667,-00000.524536,-00000.076094,-00000.067689,00000.016873
0000000002068,00002.906463,00002.778455,00002.519076,00003.308730,00003.022939,00002.951253,00002.872155,00003.405537,00002.878455,00003.017666,-00000.349115,-00000.028741,-00000.524345,-00000.076277,-00000.068117,00000.015957
0000000002069,00002.906563,00002.778737,00002.518939,00003.308666,00003.023068,00002.950936,00002.872284,00003.405555,00002.878464,00003.017877,-00000.349346,-00000.028758,-00000.524176,-00000.076388,-00000.068508,00000.015090
0000000002070,00002.906721,00002.778520,00002.518892,00003.308306,00003.023291,00002.951018,00002.872435,00003.405593,00002.878525,00003.018077,-00000.349444,-00000.029183,-00000.524013,-00000.076182,-00000.068872,00000.014309
0000000002071,00002.906807,00002.778760,00002.518775,00003.308615,00003.023039,00002.950748,00002.872545,00003.405245,00002.878895,00003.017894,-00000.349641,-00000.029560,-00000.523868,-00000.075913,-00000.069204,00000.013571
0000000002072,00002.907304,00002.778575,00002.519098,00003.309397,00003.023228,00002.951181,00002.872674,00003.405640,00002.878947,00003.017701,-00000.349724,-00000.029923,-00000.524093,-00000.075737,-00000.069514,00000.012544
0000000002073,00002.907376,00002.778417,00002.518999,00003.309659,00003.023013,00002.951314,00002.872768,00003.405344,00002.879262,00003.017545,-00000.349891,-00000.030244,-00000.523970,-00000.075508,-00000.069797,00000.011553
0000000002074,00002.907437,00002.778260,00002.518910,00003.309237,00003.023175,00002.950957,00002.872515,00003.404955,00002.879306,00003.017381,-00000.349962,-00000.030552,-00000.524161,-00000.075359,-00000.070061,00000.010316
0000000002075,00002.907136,00002.778125,00002.518826,00003.308735,00003.023717,00002.950708,00002.872595,00003.404703,00002.879574,00003.017248,-00000.350467,-00000.030826,-00000.524419,-00000.075164,-00000.070302,00000.009110
0000000002076,00002.907550,00002.777628,00002.519114,00003.308738,00003.024580,00002.950767,00002.872379,00003.405097,00002.879974,00003.017471,-00000.350890,-00000.031088,-00000.524218,-00000.075037,-00000.070527,00000.007694
0000000002077,00002.908020,00002.777876,00002.519042,00003.309036,00003.025405,00002.951280,00002.872084,00003.405245,00002.880565,00003.017721,-00000.351321,-00000.031321,-00000.524075,-00000.074871,-00000.070732,00000.006304
0000000002078,00002.908372,00002.777816,00002.518924,00003.309764,00003.026140,00002.951693,00002.871901,00003.405581,00002.881269,00003.017911,-00000.351681,-00000.031907,-00000.523905,-00000.074763,-00000.070561,00000.004736
0000000002079,00002.908409,00002.778027,00002.519225,00003.309655,00003.027205,00002.951767,00002.872376,00003.405344,00002.881772,00003.018124,-00000.352047,-00000.032468,-00000.524146,-00000.074259,-00000.070735,00000.003190
0000000002080,00002.908709,00002.778339,00002.519125,00003.309912,00003.027830,00002.951756,00002.872582,00003.405267,00002.882371,00003.017922,-00000.352354,-00000.032968,-00000.524001,-00000.074166,-00000.070952,00000.001855
0000000002081,00002.909104,00002.778518,00002.519019,00003.310545,00003.028374,00002.951819,00002.871898,00003.405066,00002.882800,00003.017741,-00000.352665,-00000.033445,-00000.523843,-00000.074100,-00000.071101,00000.000539
0000000002082,00002.909722,00002.778421,00002.519296,00003.311127,00003.028906,00002.952172,00002.872074,00003.405363,00002.883309,00003.017932,-00000.352926,-00000.033870,-00000.524082,-00000.073659,-00000.071285,-00000.000961
0000000002083,00002.910057,00002.778211,00002.519569,00003.310577,00003.029732,00002.952225,00002.872217,00003.405554,00002.883674,00003.018140,-00000.353192,-00000.034276,-00000.523948,-00000.073240,-00000.071412,-00000.002444
0000000002084,00002.909858,00002.778128,00002.519079,00003.311072,00003.030185,00002.952163,00002.872367,00003.405444,00002.884471,00003.018303,-00000.353414,-00000.034638,-00000.524152,-00000.072864,-00000.071932,-00000.003720
0000000002085,00002.910144,00002.777950,00002.519311,00003.312055,00003.030888,00002.952209,00002.872125,00003.405970,00002.884419,00003.018843,-00000.353640,-00000.034984,-00000.524400,-00000.072507,-00000.072040,-00000.004983
0000000002086,00002.910337,00002.777879,00002.519257,00003.311751,00003.030911,00002.952519,00002.871890,00003.405877,00002.884371,00003.018982,-00000.353829,-00000.035292,-00000.524211,-00000.072187,-00000.072482,-00000.006069
0000000002087,00002.910943,00002.777364,00002.519455,00003.311863,00003.031509,00002.952558,00002.872048,00003.405961,00002.884327,00003.019442,-00000.354022,-00000.035587,-00000.524060,-00000.071884,-00000.072937,-00000.007507
0000000002088,00002.911108,00002.777304,00002.519772,00003.311967,00003.032255,00002.952459,00002.872210,00003.405882,00002.884650,00003.019923,-00000.354182,-00000.035849,-00000.523898,-00000.071611,-00000.073676,-00000.009157
0000000002089,00002.911261,00002.777228,00002.519577,00003.312425,00003.032401,00002.952855,00002.871982,00003.405954,00002.884974,00003.019951,-00000.354346,-00000.036100,-00000.523770,-00000.071353,-00000.074426,-00000.010744
0000000002090,00002.911401,00002.777540,00002.519847,00003.312876,00003.033036,00002.953133,00002.872483,00003.405886,00002.885249,00003.019998,-00000.354483,-00000.036323,-00000.523995,-00000.071484,-00000.075418,-00000.012512
0000000002091,00002.911531,00002.777839,00002.519681,00003.313265,00003.033160,00002.953108,00002.873014,00003.405948,00002.885888,00003.020022,-00000.354623,-00000.036899,-00000.524248,-00000.071626,-00000.076419,-00000.014226
0000000002092,00002.911650,00002.777741,00002.519548,00003.312924,00003.033338,00002.952982,00002.873077,00003.405527,00002.886122,00003.019699,-00000.354739,-00000.037089,-00000.524440,-00000.071375,-00000.077264,-00000.015731
0000000002093,00002.911761,00002.777995,00002.519407,00003.312893,00003.033444,00002.952960,00002.873167,00003.405217,00002.886304,00003.019720,-00000.354858,-00000.037217,-00000.524656,-00000.071134,-00000.078116,-00000.017189
0000000002094,00002.912225,00002.778275,00002.519293,00003.313328,00003.033595,00002.953216,00002.873221,00003.404859,00002.886503,00003.019808,-00000.354957,-00000.037379,-00000.524819,-00000.071283,-00000.078473,-00000.018471
0000000002095,00002.912683,00002.778128,00002.519536,00003.313301,00003.033322,00002.953197,00002.872934,00003.404957,00002.886657,00003.019825,-00000.355059,-00000.037850,-00000.525003,-00000.071440,-00000.078835,-00000.019712
0000000002096,00002.913078,00002.778004,00002.519802,00003.312946,00003.033814,00002.953052,00002.873343,00003.405015,00002.886464,00003.020263,-00000.355143,-00000.038351,-00000.525142,-00000.071567,-00000.079139,-00000.020803
0000000002097,00002.913467,00002.777516,00002.520009,00003.313649,00003.034307,00002.953399,00002.873099,00003.405099,00002.886233,00003.020278,-00000.355229,-00000.038389,-00000.525298,-00000.071701,-00000.079448,-00000.021860
0000000002098,00002.913804,00002.777410,00002.520236,00003.313347,00003.034363,00002.952913,00002.873084,00003.405148,00002.886068,00003.020287,-00000.355301,-00000.038815,-00000.525417,-00000.071446,-00000.079706,-00000.022789
0000000002099,00002.914135,00002.777721,00002.520412,00003.313220,00003.034783,00002.952845,00002.873602,00003.405220,00002.886234,00003.020663,-00000.355374,-00000.039211,-00000.525187,-00000.071197,-00000.079969,-00000.024052
0000000002100,00002.914421,00002.777631,00002.520242,00003.313325,00003.035193,00002.952794,00002.873952,00003.405262,00002.886456,00003.020671,-00000.355436,-00000.039574,-00000.525288,-00000.070980,-00000.079826,-00000.025568
0000000002101,00002.915066,00002.777532,00002.520392,00003.313217,00003.035551,00002.952737,00002.874030,00003.405323,00002.886598,00003.020991,-00000.355498,-00000.039911,-00000.525092,-00000.070768,-00000.080049,-00000.026643
0000000002102,00002.914947,00002.777818,00002.520247,00003.313306,00003.035537,00002.952330,00002.874329,00003.404996,00002.887150,00003.020998,-00000.355550,-00000.040220,-00000.524815,-00000.070583,-00000.080291,-00000.027570
0000000002103,00002.915496,00002.777734,00002.520374,00003.313214,00003.035479,00002.952281,00002.874395,00003.405410,00002.886908,00003.020907,-00000.355603,-00000.040506,-00000.525011,-00000.070403,-00000.080481,-00000.028485
0000000002104,00002.916121,00002.777252,00002.520614,00003.313290,00003.035467,00002.952661,00002.874286,00003.405857,00002.887015,00003.021276,-00000.355648,-00000.040769,-00000.524776,-00000.070246,-00000.080686,-00000.029275
0000000002105,00002.916225,00002.777544,00002.520723,00003.313575,00003.035418,00002.952982,00002.874342,00003.405847,00002.887534,00003.021199,-00000.355693,-00000.041013,-00000.524943,-00000.070092,-00000.080848,-00000.030054
0000000002106,00002.916757,00002.777496,00002.520927,00003.313640,00003.035045,00002.953305,00002.873887,00003.406228,00002.887625,00003.021150,-00000.355731,-00000.041237,-00000.525105,-00000.069958,-00000.081023,-00000.030727
0000000002107,00002.916483,00002.777744,00002.520656,00003.313519,00003.035003,00002.953216,00002.874298,00003.406220,00002.888067,00003.020721,-00000.355769,-00000.041445,-00000.525247,-00000.070191,-00000.081524,-00000.031753
0000000002108,00002.916935,00002.778066,00002.520830,00003.313937,00003.035048,00002.953854,00002.874273,00003.406181,00002.888508,00003.020680,-00000.355801,-00000.041635,-00000.525385,-00000.070077,-00000.082036,-00000.032688
0000000002109,00002.916702,00002.777915,00002.520600,00003.313834,00003.035012,00002.953415,00002.874623,00003.405811,00002.888521,00003.020678,-00000.355834,-00000.041812,-00000.525506,-00000.069911,-00000.082099,-00000.033561
0000000002110,00002.916725,00002.777463,00002.520385,00003.313465,00003.035051,00002.953233,00002.874601,00003.405778,00002.888534,00003.021005,-00000.355861,-00000.041974,-00000.525623,-00000.069814,-00000.082172,-00000.034358
0000000002111,00002.916889,00002.777697,00002.520189,00003.313740,00003.035020,00002.953222,00002.874536,00003.405826,00002.888545,00003.021004,-00000.355889,-00000.042125,-00000.525727,-00000.069674,-00000.082226,-00000.035101
0000000002112,00002.916908,00002.778039,00002.520006,00003.314151,00003.035053,00002.953429,00002.874518,00003.405798,00002.888556,00003.020557,-00000.355913,-00000.042263,-00000.526189,-00000.069954,-00000.082288,-00000.035416
0000000002113,00002.916685,00002.778238,00002.519839,00003.314385,00003.035027,00002.953783,00002.874463,00003.405839,00002.888565,00003.020192,-00000.355936,-00000.042754,-00000.526277,-00000.070197,-00000.082334,-00000.035686
0000000002114,00002.916339,00002.778528,00002.519684,00003.314372,00003.035055,00002.953597,00002.874448,00003.405452,00002.888574,00003.019449,-00000.355956,-00000.042872,-00000.526308,-00000.070436,-00000.082749,-00000.035954
0000000002115,00002.916512,00002.778335,00002.519542,00003.314572,00003.034670,00002.953898,00002.874400,00003.405487,00002.888220,00003.019139,-00000.355976,-00000.042927,-00000.526383,-00000.070643,-00000.083151,-00000.036184
0000000002116,00002.916942,00002.778219,00002.519772,00003.314924,00003.034694,00002.954102,00002.874387,00003.405883,00002.888227,00003.019232,-00000.355993,-00000.043027,-00000.526410,-00000.070846,-00000.083505,-00000.036775
0000000002117,00002.917090,00002.778055,00002.520014,00003.314731,00003.034729,00002.953995,00002.873984,00003.405912,00002.887926,00003.019331,-00000.356010,-00000.043074,-00000.526473,-00000.071022,-00000.083847,-00000.037334
0000000002118,00002.917456,00002.777957,00002.520210,00003.314667,00003.034750,00002.954169,00002.874336,00003.406613,00002.887932,00003.019773,-00000.356025,-00000.043159,-00000.526858,-00000.071195,-00000.083786,-00000.037837
0000000002119,00002.917944,00002.777817,00002.520053,00003.314866,00003.034780,00002.954078,00002.873993,00003.407001,00002.888038,00003.019857,-00000.356039,-00000.043562,-00000.527275,-00000.070982,-00000.083714,-00000.037950
0000000002120,00002.917531,00002.777733,00002.520220,00003.314812,00003.035160,00002.953864,00002.874292,00003.407234,00002.888043,00003.020233,-00000.356052,-00000.043634,-00000.527241,-00000.070766,-00000.083662,-00000.038016
0000000002121,00002.917584,00002.777976,00002.520086,00003.315344,00003.034822,00002.953786,00002.874363,00003.407201,00002.888134,00003.019942,-00000.356427,-00000.043977,-00000.527233,-00000.070585,-00000.083601,-00000.038111
0000000002122,00002.917594,00002.778268,00002.519865,00003.315661,00003.034783,00002.953966,00002.874618,00003.407037,00002.888501,00003.019899,-00000.356437,-00000.044039,-00000.527566,-00000.070764,-00000.083556,-00000.038167
0000000002123,00002.918002,00002.778475,00002.520477,00003.315751,00003.035221,00002.954264,00002.874678,00003.407372,00002.888578,00003.020740,-00000.356394,-00000.044331,-00000.527922,-00000.070973,-00000.083142,-00000.038249
0000000002124,00002.918374,00002.778361,00002.520289,00003.316383,00003.035188,00002.954417,00002.874532,00003.407595,00002.888528,00003.020703,-00000.356403,-00000.044746,-00000.528206,-00000.071125,-00000.083104,-00000.038659
0000000002125,00002.918358,00002.778174,00002.520085,00003.316460,00003.034836,00002.954670,00002.874221,00003.407518,00002.888593,00003.020693,-00000.356729,-00000.044995,-00000.528509,-00000.071303,-00000.083113,-00000.039092
0000000002126,00002.918675,00002.778077,00002.519925,00003.316635,00003.034807,00002.954800,00002.874097,00003.407708,00002.888551,00003.020663,-00000.356736,-00000.045348,-00000.528388,-00000.071070,-00000.083081,-00000.039804
0000000002127,00002.919024,00002.777918,00002.520113,00003.317063,00003.034870,00002.955015,00002.874194,00003.408005,00002.888606,00003.021017,-00000.357014,-00000.045560,-00000.528646,-00000.070858,-00000.083089,-00000.040535
0000000002128,00002.919294,00002.777835,00002.520340,00003.316487,00003.034846,00002.955126,00002.873726,00003.408166,00002.888570,00003.020991,-00000.357383,-00000.045861,-00000.528543,-00000.071023,-00000.083062,-00000.041141
0000000002129,00002.918866,00002.777700,00002.520137,00003.315763,00003.034899,00002.954584,00002.873809,00003.407693,00002.888617,00003.020929,-00000.357619,-00000.046041,-00000.528762,-00000.071206,-00000.083069,-00000.041763
0000000002130,00002.918733,00002.777630,00002.519968,00003.315999,00003.034879,00002.954679,00002.873410,00003.407468,00002.888587,00003.020907,-00000.357934,-00000.046297,-00000.529037,-00000.071346,-00000.083045,-00000.042279
0000000002131,00002.918731,00002.777877,00002.519795,00003.316471,00003.034561,00002.954942,00002.873481,00003.407428,00002.888627,00003.020855,-00000.358135,-00000.046451,-00000.529224,-00000.071138,-00000.082689,-00000.042809
0000000002132,00002.918980,00002.778180,00002.519651,00003.316671,00003.034544,00002.955386,00002.873504,00003.407599,00002.888963,00003.020836,-00000.358402,-00000.046669,-00000.529458,-00000.070895,-00000.082669,-00000.043248
0000000002133,00002.918979,00002.778028,00002.519141,00003.316347,00003.034274,00002.955248,00002.873202,00003.407203,00002.888998,00003.020791,-00000.358211,-00000.046799,-00000.529255,-00000.070718,-00000.082728,-00000.043699
0000000002134,00002.919191,00002.777560,00002.519381,00003.316155,00003.034622,00002.954899,00002.873221,00003.407348,00002.888921,00003.021138,-00000.358076,-00000.046985,-00000.529091,-00000.070148,-00000.082711,-00000.044436
0000000002135,00002.919553,00002.777794,00002.519673,00003.315879,00003.035480,00002.955145,00002.873689,00003.407373,00002.888951,00003.021463,-00000.357912,-00000.047096,-00000.529281,-00000.069635,-00000.083124,-00000.045182
0000000002136,00002.919733,00002.777758,00002.519877,00003.316078,00003.035776,00002.955211,00002.874069,00003.407860,00002.888886,00003.022121,-00000.357797,-00000.047254,-00000.529141,-00000.069150,-00000.083110,-00000.045447
0000000002137,00002.919678,00002.777957,00002.519763,00003.316206,00003.035782,00002.955057,00002.874105,00003.407882,00002.889273,00003.022035,-00000.357659,-00000.047349,-00000.528940,-00000.068713,-00000.083098,-00000.046082
0000000002138,00002.919469,00002.778290,00002.519936,00003.316013,00003.036034,00002.955113,00002.874428,00003.407570,00002.889581,00003.021869,-00000.357561,-00000.047483,-00000.528821,-00000.068300,-00000.083086,-00000.046307
0000000002139,00002.919423,00002.778459,00002.519839,00003.316122,00003.036401,00002.954982,00002.874821,00003.407589,00002.889548,00003.021433,-00000.357443,-00000.047564,-00000.528650,-00000.067928,-00000.083077,-00000.046486
0000000002140,00002.919245,00002.778379,00002.519624,00003.316320,00003.035890,00002.955030,00002.874733,00003.407324,00002.889447,00003.020929,-00000.357359,-00000.047678,-00000.528549,-00000.067939,-00000.083066,-00000.046677
0000000002141,00002.919205,00002.778523,00002.519541,00003.316413,00003.035840,00002.955281,00002.875068,00003.407339,00002.889782,00003.021284,-00000.357259,-00000.047747,-00000.528403,-00000.067985,-00000.083058,-00000.046829
0000000002142,00002.919416,00002.778455,00002.519358,00003.315856,00003.035405,00002.955322,00002.874993,00003.407839,00002.889696,00003.021580,-00000.357188,-00000.047844,-00000.528317,-00000.067632,-00000.083049,-00000.046992
0000000002143,00002.919745,00002.778578,00002.519288,00003.315935,00003.035362,00002.955536,00002.875278,00003.407852,00002.889618,00003.021519,-00000.357465,-00000.047903,-00000.528193,-00000.067308,-00000.083042,-00000.047484
0000000002144,00002.919562,00002.778520,00002.519495,00003.315824,00003.035717,00002.955208,00002.874852,00003.407915,00002.889182,00003.021409,-00000.357767,-00000.047986,-00000.528119,-00000.067008,-00000.083035,-00000.047623
0000000002145,00002.919479,00002.778262,00002.519435,00003.315891,00003.035318,00002.955390,00002.874732,00003.407564,00002.889116,00003.020994,-00000.358003,-00000.048036,-00000.528014,-00000.066732,-00000.083029,-00000.047679
0000000002146,00002.919686,00002.778213,00002.519611,00003.316160,00003.035258,00002.955474,00002.874732,00003.407617,00002.888745,00003.021263,-00000.358261,-00000.048106,-00000.527951,-00000.066476,-00000.082660,-00000.047798
0000000002147,00002.919616,00002.777993,00002.519923,00003.315491,00003.035644,00002.954903,00002.874629,00003.407681,00002.888326,00003.021273,-00000.358461,-00000.048149,-00000.527861,-00000.066242,-00000.082292,-00000.047845
0000000002148,00002.919429,00002.778314,00002.520073,00003.315719,00003.035592,00002.954612,00002.874992,00003.407001,00002.888735,00003.021139,-00000.358681,-00000.048209,-00000.527808,-00000.066024,-00000.081978,-00000.047946
0000000002149,00002.919369,00002.778126,00002.520338,00003.315513,00003.035921,00002.954489,00002.874905,00003.407055,00002.888741,00003.021510,-00000.358489,-00000.048245,-00000.527732,-00000.065824,-00000.082027,-00000.047986
0000000002150,00002.919573,00002.778037,00002.520103,00003.315708,00003.036240,00002.954240,00002.874851,00003.407202,00002.888365,00003.021396,-00000.358313,-00000.048296,-00000.527686,-00000.065639,-00000.081760,-00000.048072
0000000002151,00002.919522,00002.778240,00002.519966,00003.316258,00003.036156,00002.954498,00002.874777,00003.407248,00002.888370,00003.021349,-00000.358149,-00000.048327,-00000.527258,-00000.065469,-00000.081439,-00000.048107
0000000002152,00002.919696,00002.777801,00002.519766,00003.316060,00003.036065,00002.954287,00002.874368,00003.407010,00002.888049,00003.021252,-00000.358362,-00000.048370,-00000.527220,-00000.065674,-00000.081211,-00000.048180
0000000002153,00002.919653,00002.777611,00002.519650,00003.316166,00003.035994,00002.954507,00002.873942,00003.407049,00002.888053,00003.021212,-00000.358586,-00000.048033,-00000.527218,-00000.065892,-00000.080939,-00000.048209
0000000002154,00002.919800,00002.777600,00002.519479,00003.316361,00003.035554,00002.955052,00002.873957,00003.406846,00002.888143,00003.021130,-00000.358404,-00000.048071,-00000.526823,-00000.066066,-00000.080745,-00000.048271
0000000002155,00002.919763,00002.777802,00002.519380,00003.316450,00003.035131,00002.955239,00002.873957,00003.406517,00002.888509,00003.021096,-00000.358232,-00000.048147,-00000.526459,-00000.066252,-00000.080512,-00000.048296
0000000002156,00002.919164,00002.777792,00002.518872,00003.316616,00003.035119,00002.954978,00002.874332,00003.406344,00002.888948,00003.021025,-00000.358440,-00000.048178,-00000.526122,-00000.066400,-00000.079984,-00000.048349
0000000002157,00002.919495,00002.777601,00002.519151,00003.316693,00003.035121,00002.955138,00002.874332,00003.406427,00002.888535,00003.020996,-00000.358656,-00000.048243,-00000.525812,-00000.066558,-00000.079424,-00000.048371
0000000002158,00002.919347,00002.777593,00002.519444,00003.316471,00003.035474,00002.954915,00002.874652,00003.406280,00002.888546,00003.021299,-00000.358833,-00000.048270,-00000.525525,-00000.066685,-00000.078975,-00000.048416
0000000002159,00002.919266,00002.776705,00002.519681,00003.316173,00003.035476,00002.955051,00002.874652,00003.406713,00002.888557,00003.021275,-00000.359017,-00000.048325,-00000.525261,-00000.066819,-00000.078497,-00000.048434
0000000002160,00002.919141,00002.776698,00002.519931,00003.315985,00003.035776,00002.954862,00002.874561,00003.406588,00002.888203,00003.021533,-00000.359168,-00000.048348,-00000.525380,-00000.066927,-00000.078115,-00000.048472
0000000002161,00002.919072,00002.776667,00002.519769,00003.316094,00003.035778,00002.954614,00002.874199,00003.406231,00002.888212,00003.021149,-00000.359325,-00000.048395,-00000.525156,-00000.067042,-00000.077709,-00000.048487
0000000002162,00002.918965,00002.776661,00002.519619,00003.315933,00003.035671,00002.955179,00002.874484,00003.406487,00002.888637,00003.021369,-00000.359453,-00000.048415,-00000.525257,-00000.067133,-00000.077383,-00000.048520
0000000002163,00002.919269,00002.776998,00002.519845,00003.316389,00003.035672,00002.955331,00002.874538,00003.406909,00002.888645,00003.021405,-00000.359587,-00000.048092,-00000.525065,-00000.067231,-00000.077037,-00000.048533
0000000002164,00002.919178,00002.777356,00002.520080,00003.316978,00003.035944,00002.955086,00002.874781,00003.406764,00002.889006,00003.021229,-00000.359696,-00000.048108,-00000.524789,-00000.067671,-00000.077123,-00000.048924
0000000002165,00002.919074,00002.776917,00002.519909,00003.316278,00003.035945,00002.954490,00002.874464,00003.406761,00002.888650,00003.021259,-00000.359809,-00000.048196,-00000.524989,-00000.067754,-00000.077191,-00000.049298
0000000002166,00002.919359,00002.776496,00002.520109,00003.316054,00003.036176,00002.954644,00002.874309,00003.406638,00002.888595,00003.021110,-00000.359902,-00000.048211,-00000.525116,-00000.067767,-00000.077264,-00000.049267
0000000002167,00002.918908,00002.776122,00002.519964,00003.315820,00003.036540,00002.954500,00002.874402,00003.406271,00002.888292,00003.021136,-00000.359999,-00000.048286,-00000.525286,-00000.068200,-00000.076959,-00000.049223
0000000002168,00002.918425,00002.776126,00002.519408,00003.315629,00003.036374,00002.954268,00002.874269,00003.405804,00002.888245,00003.021008,-00000.360078,-00000.048298,-00000.525394,-00000.068211,-00000.076659,-00000.049560
0000000002169,00002.918767,00002.776171,00002.519647,00003.315431,00003.037047,00002.954145,00002.874711,00003.405855,00002.888350,00003.021393,-00000.360161,-00000.048361,-00000.525539,-00000.068217,-00000.076399,-00000.049522
0000000002170,00002.919444,00002.776538,00002.520263,00003.315631,00003.037631,00002.954311,00002.874961,00003.406183,00002.887947,00003.021285,-00000.360228,-00000.048372,-00000.525269,-00000.068589,-00000.076506,-00000.049809
0000000002171,00002.919010,00002.776576,00002.519741,00003.315824,00003.037478,00002.954206,00002.874974,00003.405863,00002.888036,00003.020887,-00000.360298,-00000.048426,-00000.525029,-00000.068594,-00000.076648,-00000.050140
0000000002172,00002.918861,00002.776525,00002.519540,00003.316358,00003.037250,00002.954347,00002.874824,00003.405779,00002.888056,00003.020432,-00000.360356,-00000.048435,-00000.524799,-00000.068548,-00000.076739,-00000.050384
0000000002173,00002.918853,00002.776557,00002.519458,00003.316523,00003.037119,00002.954621,00002.874836,00003.405508,00002.888132,00003.020456,-00000.360415,-00000.048481,-00000.524595,-00000.068553,-00000.076497,-00000.051028
0000000002174,00002.918726,00002.776514,00002.519286,00003.316977,00003.036925,00002.954741,00002.875071,00003.405799,00002.888149,00003.020431,-00000.360464,-00000.048488,-00000.524762,-00000.068513,-00000.076574,-00000.051599
0000000002175,00002.918720,00002.776542,00002.519217,00003.317117,00003.036814,00002.954611,00002.875081,00003.405568,00002.888214,00003.020089,-00000.360152,-00000.048528,-00000.524588,-00000.068517,-00000.077094,-00000.052147
0000000002176,00002.918612,00002.776505,00002.519071,00003.316778,00003.037011,00002.953987,00002.874918,00003.405090,00002.888228,00003.019705,-00000.360194,-00000.048534,-00000.524730,-00000.068846,-00000.077523,-00000.052996
0000000002177,00002.918607,00002.776528,00002.519012,00003.316897,00003.037280,00002.953514,00002.875652,00003.405256,00002.888646,00003.020140,-00000.360291,-00000.048567,-00000.524945,-00000.068849,-00000.077965,-00000.053826
0000000002178,00002.918515,00002.776497,00002.518887,00003.316971,00003.037085,00002.953709,00002.875513,00003.405212,00002.889021,00003.020176,-00000.360326,-00000.048573,-00000.524703,-00000.068767,-00000.077967,-00000.054185
0000000002179,00002.918510,00002.776517,00002.518837,00003.317073,00003.037314,00002.953669,00002.875413,00003.405353,00002.889014,00003.020183,-00000.360409,-00000.048601,-00000.524524,-00000.068770,-00000.078344,-00000.054892
0000000002180,00002.918069,00002.776490,00002.519094,00003.316773,00003.037511,00002.953472,00002.875295,00003.404953,00002.888971,00003.020576,-00000.360439,-00000.048606,-00000.524680,-00000.068700,-00000.078709,-00000.055561
0000000002181,00002.918065,00002.776144,00002.519414,00003.316497,00003.037705,00002.953438,00002.875209,00003.404711,00002.888965,00003.020945,-00000.360509,-00000.048630,-00000.524527,-00000.068702,-00000.079029,-00000.056162
0000000002182,00002.918416,00002.776122,00002.519270,00003.316605,00003.037510,00002.953633,00002.875108,00003.405096,00002.888928,00003.020917,-00000.360535,-00000.048634,-00000.524298,-00000.068642,-00000.079340,-00000.057094
0000000002183,00002.919138,00002.776190,00002.519542,00003.316732,00003.038038,00002.953967,00002.875035,00003.405615,00002.888922,00003.021231,-00000.360595,-00000.048655,-00000.524168,-00000.068644,-00000.079612,-00000.057969
0000000002184,00002.919073,00002.776171,00002.519419,00003.316461,00003.038235,00002.953770,00002.874950,00003.405217,00002.888891,00003.021207,-00000.360617,-00000.048658,-00000.524336,-00000.068593,-00000.079877,-00000.058400
0000000002185,00002.918963,00002.776229,00002.519289,00003.316570,00003.037959,00002.954054,00002.874888,00003.405296,00002.888887,00003.021111,-00000.360305,-00000.048676,-00000.524587,-00000.068595,-00000.080109,-00000.058781
0000000002186,00002.918907,00002.776575,00002.519184,00003.316339,00003.037764,00002.953887,00002.875178,00003.404957,00002.888860,00003.021091,-00000.360324,-00000.048678,-00000.524730,-00000.068552,-00000.080697,-00000.059148
0000000002187,00002.919176,00002.776625,00002.519435,00003.316432,00003.037892,00002.954129,00002.875125,00003.405388,00002.888856,00003.021373,-00000.360421,-00000.048693,-00000.524582,-00000.068916,-00000.080895,-00000.059473
0000000002188,00002.918766,00002.776557,00002.518984,00003.316598,00003.037726,00002.953986,00002.874646,00003.405099,00002.888833,00003.020993,-00000.360074,-00000.048333,-00000.524340,-00000.068879,-00000.081395,-00000.059785
0000000002189,00002.918632,00002.776599,00002.519198,00003.317040,00003.038198,00002.953829,00002.874964,00003.405103,00002.888830,00003.021232,-00000.360157,-00000.048346,-00000.524214,-00000.068826,-00000.081563,-00000.060062
0000000002190,00002.919009,00002.776541,00002.519176,00003.316455,00003.038419,00002.953708,00002.874919,00003.405220,00002.888811,00003.021634,-00000.359862,-00000.048402,-00000.524009,-00000.068795,-00000.081626,-00000.060691
0000000002191,00002.918895,00002.776577,00002.518633,00003.316469,00003.038095,00002.953937,00002.874827,00003.404860,00002.888808,00003.021475,-00000.359569,-00000.048413,-00000.523901,-00000.068750,-00000.081770,-00000.060926
0000000002192,00002.919215,00002.776528,00002.518977,00003.316697,00003.038646,00002.954197,00002.875152,00003.405323,00002.889154,00003.021818,-00000.359318,-00000.048460,-00000.523726,-00000.068723,-00000.082186,-00000.061099
0000000002193,00002.919481,00002.776559,00002.519240,00003.316708,00003.038733,00002.954392,00002.874710,00003.405742,00002.888789,00003.022045,-00000.359069,-00000.048107,-00000.523635,-00000.068685,-00000.082308,-00000.061299
0000000002194,00002.919391,00002.776154,00002.519170,00003.316177,00003.038477,00002.954250,00002.874261,00003.405773,00002.888358,00003.021974,-00000.359218,-00000.048147,-00000.523486,-00000.068662,-00000.082300,-00000.061446
0000000002195,00002.919255,00002.776543,00002.519031,00003.316187,00003.038551,00002.954053,00002.874611,00003.405767,00002.888410,00003.021805,-00000.359369,-00000.047846,-00000.523771,-00000.068630,-00000.082404,-00000.061617
0000000002196,00002.919541,00002.776561,00002.518972,00003.316460,00003.038332,00002.954295,00002.874591,00003.405794,00002.888043,00003.021744,-00000.359133,-00000.047881,-00000.524007,-00000.068610,-00000.082397,-00000.061742
0000000002197,00002.919425,00002.776529,00002.518854,00003.316105,00003.038758,00002.954128,00002.874889,00003.405789,00002.888088,00003.021600,-00000.359261,-00000.047987,-00000.524249,-00000.068583,-00000.082848,-00000.061887
0000000002198,00002.919668,00002.776545,00002.519166,00003.316338,00003.038935,00002.954334,00002.874873,00003.406174,00002.888138,00003.021548,-00000.359423,-00000.048017,-00000.524450,-00000.068566,-00000.083205,-00000.061993
0000000002199,00002.919932,00002.776155,00002.519065,00003.317124,00003.038572,00002.954554,00002.874401,00003.406170,00002.888176,00003.021426,-00000.359170,-00000.048108,-00000.524657,-00000.068543,-00000.083589,-00000.061754
0000000002200,00002.919777,00002.776168,00002.518606,00003.317685,00003.038360,00002.954729,00002.874386,00003.406135,00002.888582,00003.021382,-00000.358945,-00000.048133,-00000.524828,-00000.068891,-00000.083893,-00000.061482
0000000002201,00002.919639,00002.776199,00002.518883,00003.317266,00003.038414,00002.954917,00002.874710,00003.405768,00002.888614,00003.021640,-00000.358729,-00000.048210,-00000.525004,-00000.069234,-00000.083857,-00000.060916
0000000002202,00002.919506,00002.776573,00002.518854,00003.317381,00003.038596,00002.954703,00002.874698,00003.405739,00002.888596,00003.021603,-00000.358900,-00000.048231,-00000.525149,-00000.069531,-00000.083753,-00000.060321
0000000002203,00002.919389,00002.776600,00002.518727,00003.317025,00003.038642,00002.954500,00002.874974,00003.405790,00002.888624,00003.021460,-00000.359079,-00000.047934,-00000.525299,-00000.069460,-00000.083723,-00000.059839
0000000002204,00002.919639,00002.776555,00002.518703,00003.317122,00003.038434,00002.955044,00002.874963,00003.406127,00002.888609,00003.021791,-00000.358862,-00000.047952,-00000.525060,-00000.068987,-00000.083634,-00000.059333
0000000002205,00002.919902,00002.776215,00002.518595,00003.316819,00003.038110,00002.955234,00002.874835,00003.406533,00002.888270,00003.021670,-00000.358652,-00000.047699,-00000.524462,-00000.068927,-00000.083608,-00000.059285
0000000002206,00002.919752,00002.775814,00002.518574,00003.316176,00003.037933,00002.954971,00002.874464,00003.406458,00002.887894,00003.021226,-00000.358467,-00000.047715,-00000.524258,-00000.068524,-00000.083170,-00000.059217
0000000002207,00002.919975,00002.775524,00002.518845,00003.316281,00003.037658,00002.955133,00002.874354,00003.406804,00002.887968,00003.021122,-00000.358288,-00000.047500,-00000.524112,-00000.068473,-00000.082785,-00000.059176
0000000002208,00002.920211,00002.775183,00002.518827,00003.316096,00003.037507,00002.954909,00002.874401,00003.407102,00002.888011,00003.021107,-00000.358494,-00000.047513,-00000.523939,-00000.068493,-00000.082412,-00000.058756
0000000002209,00002.919675,00002.775300,00002.519421,00003.315823,00003.037635,00002.954684,00002.874671,00003.407034,00002.888074,00003.021019,-00000.358704,-00000.047692,-00000.523814,-00000.068449,-00000.082084,-00000.058358
0000000002210,00002.919876,00002.775735,00002.519406,00003.316391,00003.037507,00002.954857,00002.874710,00003.406925,00002.888111,00003.020281,-00000.358879,-00000.047341,-00000.524030,-00000.068466,-00000.081767,-00000.057637
0000000002211,00002.919783,00002.775834,00002.519185,00003.316158,00003.037616,00002.954665,00002.874940,00003.406504,00002.888527,00003.019843,-00000.359058,-00000.047493,-00000.524286,-00000.068429,-00000.081488,-00000.056936
0000000002212,00002.919228,00002.775841,00002.518809,00003.316642,00003.037507,00002.954449,00002.874611,00003.406411,00002.888558,00003.019214,-00000.359207,-00000.047557,-00000.524470,-00000.068806,-00000.081217,-00000.056322
0000000002213,00002.919149,00002.776288,00002.518622,00003.316444,00003.037963,00002.954649,00002.874807,00003.406416,00002.888913,00003.018841,-00000.359360,-00000.047324,-00000.524688,-00000.068775,-00000.080980,-00000.055726
0000000002214,00002.919039,00002.777021,00002.519028,00003.316493,00003.038232,00002.954827,00002.875252,00003.406337,00002.889302,00003.019032,-00000.359486,-00000.047378,-00000.524844,-00000.069096,-00000.080387,-00000.055203
0000000002215,00002.919335,00002.776676,00002.519231,00003.316687,00003.038258,00002.954997,00002.875056,00003.406704,00002.889241,00003.019077,-00000.359616,-00000.047543,-00000.525393,-00000.069069,-00000.079822,-00000.054695
0000000002216,00002.919241,00002.776936,00002.519213,00003.316729,00003.038487,00002.954787,00002.875435,00003.406637,00002.889210,00003.019240,-00000.359724,-00000.047589,-00000.525526,-00000.068979,-00000.079680,-00000.054613
0000000002217,00002.919130,00002.777005,00002.519023,00003.316894,00003.038146,00002.954932,00002.875268,00003.406586,00002.888795,00003.018916,-00000.359835,-00000.047729,-00000.525631,-00000.069319,-00000.079562,-00000.054543
0000000002218,00002.919050,00002.777227,00002.519009,00003.316567,00003.038342,00002.954752,00002.875591,00003.406529,00002.888768,00003.019054,-00000.359926,-00000.047768,-00000.525744,-00000.069606,-00000.079441,-00000.054474
0000000002219,00002.919318,00002.777286,00002.519210,00003.316708,00003.038051,00002.955238,00002.875449,00003.406848,00002.888778,00003.019503,-00000.360383,-00000.047888,-00000.525833,-00000.069895,-00000.079340,-00000.054414
0000000002220,00002.919614,00002.776749,00002.519197,00003.316429,00003.037855,00002.955449,00002.875361,00003.407162,00002.888755,00003.019621,-00000.360462,-00000.047921,-00000.526292,-00000.070139,-00000.078875,-00000.054355
0000000002221,00002.919116,00002.777162,00002.519368,00003.316186,00003.037607,00002.955137,00002.875239,00003.406709,00002.888764,00003.019278,-00000.360488,-00000.048023,-00000.526367,-00000.070386,-00000.078789,-00000.053942
0000000002222,00002.919005,00002.776705,00002.519358,00003.315586,00003.037803,00002.954953,00002.875165,00003.406614,00002.888382,00003.019378,-00000.360554,-00000.048051,-00000.526395,-00000.070593,-00000.078755,-00000.053891
0000000002223,00002.919307,00002.776693,00002.519141,00003.315742,00003.037592,00002.955050,00002.875061,00003.406590,00002.888389,00003.019449,-00000.360577,-00000.048138,-00000.526823,-00000.070803,-00000.079045,-00000.053539
0000000002224,00002.919212,00002.776667,00002.519132,00003.315594,00003.037759,00002.954894,00002.874998,00003.406509,00002.888426,00003.019534,-00000.360633,-00000.048162,-00000.527209,-00000.071343,-00000.079379,-00000.053133
0000000002225,00002.918743,00002.777020,00002.518947,00003.315727,00003.037942,00002.954614,00002.875273,00003.406489,00002.888795,00003.019232,-00000.360652,-00000.048235,-00000.527210,-00000.071521,-00000.079989,-00000.052834
0000000002226,00002.919025,00002.776635,00002.519302,00003.315964,00003.037359,00002.954843,00002.874856,00003.406420,00002.888464,00003.019304,-00000.360700,-00000.048256,-00000.527539,-00000.071981,-00000.080636,-00000.052488
0000000002227,00002.919352,00002.776210,00002.519507,00003.315714,00003.037152,00002.954968,00002.874364,00003.406403,00002.888415,00003.019047,-00000.360717,-00000.048319,-00000.527903,-00000.072495,-00000.081155,-00000.052233
0000000002228,00002.919592,00002.775882,00002.519447,00003.315553,00003.037018,00002.955163,00002.874372,00003.406707,00002.888134,00003.019109,-00000.360758,-00000.048699,-00000.528183,-00000.072887,-00000.081706,-00000.051939
0000000002229,00002.919871,00002.775883,00002.519259,00003.315703,00003.036479,00002.955269,00002.874316,00003.406693,00002.888092,00003.018890,-00000.360771,-00000.048752,-00000.528493,-00000.073325,-00000.082148,-00000.051359
0000000002230,00002.919349,00002.775967,00002.519207,00003.315929,00003.036365,00002.954710,00002.873960,00003.405863,00002.888215,00003.018579,-00000.360806,-00000.048713,-00000.528731,-00000.073295,-00000.082254,-00000.051109
0000000002231,00002.919223,00002.775968,00002.519410,00003.315694,00003.036632,00002.954437,00002.873913,00003.405851,00002.888180,00003.018756,-00000.360818,-00000.048759,-00000.528632,-00000.073668,-00000.082267,-00000.050615
0000000002232,00002.918780,00002.776039,00002.519366,00003.315886,00003.036535,00002.954324,00002.873972,00003.405508,00002.888284,00003.018492,-00000.360848,-00000.048725,-00000.528835,-00000.074005,-00000.082358,-00000.050039
0000000002233,00002.918673,00002.776403,00002.519176,00003.315686,00003.036399,00002.954092,00002.874295,00003.405497,00002.888254,00003.018279,-00000.360495,-00000.048764,-00000.529113,-00000.074323,-00000.082732,-00000.049619
0000000002234,00002.918295,00002.776826,00002.519139,00003.315849,00003.036316,00002.954358,00002.874708,00003.405568,00002.888706,00003.018054,-00000.360520,-00000.048736,-00000.528923,-00000.074610,-00000.083172,-00000.049129
0000000002235,00002.918204,00002.776410,00002.518977,00003.314953,00003.036201,00002.954161,00002.874257,00003.405559,00002.888318,00003.018236,-00000.360583,-00000.048769,-00000.528797,-00000.074880,-00000.083490,-00000.049134
0000000002236,00002.918245,00002.776045,00002.519308,00003.314730,00003.036493,00002.954388,00002.874247,00003.405981,00002.888340,00003.018770,-00000.360604,-00000.048745,-00000.528636,-00000.074762,-00000.083865,-00000.049079
0000000002237,00002.918167,00002.776053,00002.519533,00003.314330,00003.036758,00002.954219,00002.874225,00003.406337,00002.888009,00003.019287,-00000.360657,-00000.048773,-00000.528528,-00000.074629,-00000.084136,-00000.049083
0000000002238,00002.918565,00002.776105,00002.519815,00003.314139,00003.036644,00002.954050,00002.874579,00003.406697,00002.888028,00003.019742,-00000.360676,-00000.048752,-00000.528391,-00000.074892,-00000.084455,-00000.049037
0000000002239,00002.918499,00002.776113,00002.519281,00003.314162,00003.035418,00002.953906,00002.874561,00003.406273,00002.888109,00003.019457,-00000.360721,-00000.048776,-00000.528300,-00000.074779,-00000.084323,-00000.049403
0000000002240,00002.918112,00002.776157,00002.519158,00003.313274,00003.034958,00002.953399,00002.874499,00003.406217,00002.888125,00003.019481,-00000.360737,-00000.048759,-00000.528545,-00000.074639,-00000.084594,-00000.049364
0000000002241,00002.918056,00002.776163,00002.519066,00003.312568,00003.034640,00002.953277,00002.874484,00003.406582,00002.887831,00003.019964,-00000.360775,-00000.048779,-00000.528467,-00000.074543,-00000.084844,-00000.049676
0000000002242,00002.918089,00002.776201,00002.519324,00003.312538,00003.033886,00002.953208,00002.874431,00003.406897,00002.887845,00003.019985,-00000.360788,-00000.048764,-00000.528314,-00000.074424,-00000.084713,-00000.050005
0000000002243,00002.918404,00002.776206,00002.519246,00003.313024,00003.032890,00002.953467,00002.874418,00003.407208,00002.887957,00003.019670,-00000.360458,-00000.048781,-00000.528248,-00000.074342,-00000.084926,-00000.049908
0000000002244,00002.918432,00002.776238,00002.519466,00003.312636,00003.032611,00002.953408,00002.874374,00003.407476,00002.887606,00003.019688,-00000.360470,-00000.048769,-00000.528117,-00000.074241,-00000.085176,-00000.049825
0000000002245,00002.918338,00002.776243,00002.519762,00003.312688,00003.032125,00002.953629,00002.874000,00003.407378,00002.887702,00003.020146,-00000.360552,-00000.048783,-00000.528060,-00000.074171,-00000.084995,-00000.049742
0000000002246,00002.917999,00002.776270,00002.519587,00003.312720,00003.031525,00002.953579,00002.873961,00003.407243,00002.887766,00003.019798,-00000.360561,-00000.048773,-00000.527949,-00000.074085,-00000.084846,-00000.049672
0000000002247,00002.917918,00002.776274,00002.519839,00003.313127,00003.031111,00002.953767,00002.874006,00003.407523,00002.887848,00003.019825,-00000.360631,-00000.048785,-00000.527901,-00000.074026,-00000.085054,-00000.049601
0000000002248,00002.917630,00002.776297,00002.520052,00003.313517,00003.030600,00002.953724,00002.874336,00003.407408,00002.888265,00003.019529,-00000.360639,-00000.048776,-00000.527444,-00000.073590,-00000.084927,-00000.049541
0000000002249,00002.917562,00002.776300,00002.519541,00003.313863,00003.030248,00002.953521,00002.874374,00003.407283,00002.888335,00003.019552,-00000.361061,-00000.048787,-00000.527403,-00000.073539,-00000.085104,-00000.049482
0000000002250,00002.917679,00002.776320,00002.519723,00003.313833,00003.029813,00002.953847,00002.874293,00003.407548,00002.888327,00003.019663,-00000.361431,-00000.048779,-00000.527376,-00000.073531,-00000.084996,-00000.049431
0000000002251,00002.917621,00002.776686,00002.520013,00003.314127,00003.029514,00002.953675,00002.874688,00003.407442,00002.888386,00003.019682,-00000.361790,-00000.049151,-00000.527341,-00000.073125,-00000.084421,-00000.049742
0000000002252,00002.918083,00002.776702,00002.520168,00003.314464,00003.028781,00002.953953,00002.874618,00003.407668,00002.888379,00003.019777,-00000.362105,-00000.049507,-00000.527318,-00000.072755,-00000.083966,-00000.050062
0000000002253,00002.918034,00002.776651,00002.520778,00003.315078,00003.028888,00002.953806,00002.875317,00003.407940,00002.888430,00003.019793,-00000.362774,-00000.049823,-00000.526926,-00000.072409,-00000.083477,-00000.050327
0000000002254,00002.918065,00002.776665,00002.520547,00003.315002,00003.028264,00002.953679,00002.874895,00003.407044,00002.888424,00003.019511,-00000.363405,-00000.049764,-00000.526907,-00000.072457,-00000.083090,-00000.050962
0000000002255,00002.918748,00002.776984,00002.521066,00003.315524,00003.027630,00002.953917,00002.874765,00003.407275,00002.888467,00003.019162,-00000.364337,-00000.050033,-00000.526935,-00000.072526,-00000.083036,-00000.051550
0000000002256,00002.918774,00002.777359,00002.521232,00003.315459,00003.027462,00002.953810,00002.875131,00003.407238,00002.888463,00003.019284,-00000.365237,-00000.050345,-00000.526919,-00000.072567,-00000.083069,-00000.052454
0000000002257,00002.918993,00002.777268,00002.520949,00003.315179,00003.026922,00002.954012,00002.875020,00003.407435,00002.888499,00003.019350,-00000.366030,-00000.050575,-00000.526581,-00000.072625,-00000.082661,-00000.053317
0000000002258,00002.918653,00002.777224,00002.520727,00003.314761,00003.026416,00002.953920,00002.874969,00003.407404,00002.888495,00003.019092,-00000.366796,-00000.050841,-00000.526567,-00000.072297,-00000.081964,-00000.054086
0000000002259,00002.918114,00002.777146,00002.520486,00003.314884,00003.025957,00002.954093,00002.874875,00003.407209,00002.888889,00003.018785,-00000.367471,-00000.051036,-00000.526641,-00000.072347,-00000.081253,-00000.055185
0000000002260,00002.918187,00002.776747,00002.520297,00003.315617,00003.025888,00002.954015,00002.874832,00003.407182,00002.888885,00003.018928,-00000.368486,-00000.051262,-00000.526629,-00000.072430,-00000.081385,-00000.055839
0000000002261,00002.918453,00002.776680,00002.520455,00003.315722,00003.025497,00002.954161,00002.874751,00003.407741,00002.888858,00003.019392,-00000.369424,-00000.051428,-00000.526330,-00000.072473,-00000.081506,-00000.056774
0000000002262,00002.918516,00002.776703,00002.520294,00003.315983,00003.024714,00002.954458,00002.874714,00003.407718,00002.888855,00003.019151,-00000.370651,-00000.051621,-00000.525957,-00000.072544,-00000.081255,-00000.057694
0000000002263,00002.918743,00002.776646,00002.520791,00003.315710,00003.025106,00002.954583,00002.875009,00003.407832,00002.889194,00003.019546,-00000.371812,-00000.051400,-00000.525703,-00000.072580,-00000.080995,-00000.058490
0000000002264,00002.918796,00002.776665,00002.521017,00003.315932,00003.025165,00002.954835,00002.875340,00003.408175,00002.889555,00003.019704,-00000.372856,-00000.051563,-00000.525748,-00000.072640,-00000.081145,-00000.059636
0000000002265,00002.918626,00002.776617,00002.521077,00003.316062,00003.024774,00002.954941,00002.875228,00003.408272,00002.889481,00003.019315,-00000.373845,-00000.051375,-00000.525531,-00000.072308,-00000.080923,-00000.060313
0000000002266,00002.919034,00002.776634,00002.521270,00003.315889,00003.024460,00002.954793,00002.875147,00003.408564,00002.889425,00003.019449,-00000.375097,-00000.051515,-00000.525207,-00000.072360,-00000.081051,-00000.061289
0000000002267,00002.918527,00002.776956,00002.520958,00003.315637,00003.024127,00002.954521,00002.875051,00003.408284,00002.889725,00003.019117,-00000.376301,-00000.051717,-00000.525022,-00000.072077,-00000.081225,-00000.062229
0000000002268,00002.918148,00002.777332,00002.520759,00003.315852,00003.024224,00002.954395,00002.875346,00003.408170,00002.890040,00003.019231,-00000.377367,-00000.051836,-00000.524384,-00000.071395,-00000.081333,-00000.063059
0000000002269,00002.918079,00002.777244,00002.520494,00003.316000,00003.023577,00002.954526,00002.875264,00003.407931,00002.889932,00003.018950,-00000.378392,-00000.051645,-00000.523864,-00000.070792,-00000.081119,-00000.063859
0000000002270,00002.918120,00002.777201,00002.520325,00003.315820,00003.022571,00002.954782,00002.875152,00003.407834,00002.889838,00003.018684,-00000.379662,-00000.051384,-00000.523320,-00000.070574,-00000.081211,-00000.064566
0000000002271,00002.918424,00002.777489,00002.520462,00003.316309,00003.022021,00002.954893,00002.875445,00003.407993,00002.890109,00003.018807,-00000.380898,-00000.051222,-00000.522877,-00000.070423,-00000.081392,-00000.065247
0000000002272,00002.918459,00002.777453,00002.520318,00003.316882,00003.021527,00002.955111,00002.875350,00003.407911,00002.890029,00003.018580,-00000.381979,-00000.050999,-00000.522414,-00000.070238,-00000.081470,-00000.065849
0000000002273,00002.918355,00002.777697,00002.520434,00003.316573,00003.021421,00002.955206,00002.875600,00003.407684,00002.890260,00003.018322,-00000.383031,-00000.050861,-00000.522038,-00000.069747,-00000.081624,-00000.066791
0000000002274,00002.918022,00002.778029,00002.520312,00003.316334,00003.021001,00002.955028,00002.875518,00003.407613,00002.890554,00003.018492,-00000.383951,-00000.050671,-00000.521281,-00000.069226,-00000.081690,-00000.067667
0000000002275,00002.917933,00002.777875,00002.520411,00003.316071,00003.020911,00002.954746,00002.875368,00003.407783,00002.890025,00003.018273,-00000.384846,-00000.050554,-00000.520960,-00000.068808,-00000.081458,-00000.068469
0000000002276,00002.918012,00002.777795,00002.520669,00003.315505,00003.020553,00002.954595,00002.875299,00003.407723,00002.889913,00003.018418,-00000.385630,-00000.050392,-00000.521041,-00000.068002,-00000.081152,-00000.069577
0000000002277,00002.917574,00002.777300,00002.520754,00003.314556,00003.020476,00002.954355,00002.875171,00003.407505,00002.889825,00003.018593,-00000.386392,-00000.049929,-00000.521494,-00000.067646,-00000.080955,-00000.070622
0000000002278,00002.917641,00002.777595,00002.520611,00003.315163,00003.020534,00002.954589,00002.875475,00003.407454,00002.890092,00003.018717,-00000.387422,-00000.049792,-00000.521926,-00000.066960,-00000.080694,-00000.071566
0000000002279,00002.917631,00002.777900,00002.520683,00003.315443,00003.020106,00002.954384,00002.875729,00003.407268,00002.890380,00003.018503,-00000.388434,-00000.049398,-00000.522311,-00000.066294,-00000.080163,-00000.072093
0000000002280,00002.917688,00002.778151,00002.520561,00003.315596,00003.019793,00002.954584,00002.875987,00003.407224,00002.890608,00003.018245,-00000.389310,-00000.048918,-00000.522316,-00000.065710,-00000.079579,-00000.072896
0000000002281,00002.917680,00002.778773,00002.520260,00003.315472,00003.019791,00002.954410,00002.876204,00003.407066,00002.890853,00003.018064,-00000.390172,-00000.048583,-00000.522281,-00000.065143,-00000.079127,-00000.073708
0000000002282,00002.917729,00002.778261,00002.520519,00003.315240,00003.019525,00002.954217,00002.876061,00003.407392,00002.890684,00003.018207,-00000.390918,-00000.048537,-00000.522285,-00000.064646,-00000.078992,-00000.074391
0000000002283,00002.917721,00002.778428,00002.520262,00003.316222,00003.019161,00002.954431,00002.876245,00003.407257,00002.890893,00003.018053,-00000.392014,-00000.048614,-00000.522618,-00000.064163,-00000.078970,-00000.075082
0000000002284,00002.917400,00002.778718,00002.520483,00003.316025,00003.018933,00002.954267,00002.876486,00003.407172,00002.891112,00003.017812,-00000.393012,-00000.048575,-00000.522985,-00000.063740,-00000.078493,-00000.075664
0000000002285,00002.917756,00002.778860,00002.520990,00003.315773,00003.018986,00002.954450,00002.876280,00003.407420,00002.891290,00003.018406,-00000.393582,-00000.048641,-00000.522905,-00000.062967,-00000.078111,-00000.076253
0000000002286,00002.917846,00002.778743,00002.521178,00003.315242,00003.018793,00002.953947,00002.876486,00003.407347,00002.891476,00003.018564,-00000.394069,-00000.048245,-00000.522854,-00000.061881,-00000.077705,-00000.076748
0000000002287,00002.918149,00002.778502,00002.521609,00003.315028,00003.018112,00002.954102,00002.876310,00003.407558,00002.891627,00003.018707,-00000.394555,-00000.047939,-00000.522787,-00000.061222,-00000.077380,-00000.077249
0000000002288,00002.918225,00002.778765,00002.521769,00003.315301,00003.017585,00002.954400,00002.876485,00003.407496,00002.892149,00003.018478,-00000.394969,-00000.047602,-00000.522744,-00000.061023,-00000.077034,-00000.077670
0000000002289,00002.918121,00002.778560,00002.521774,00003.315119,00003.017006,00002.954533,00002.876336,00003.407313,00002.892278,00003.018237,-00000.395382,-00000.047340,-00000.522686,-00000.060825,-00000.076394,-00000.078097
0000000002290,00002.918548,00002.778784,00002.522273,00003.315352,00003.016557,00002.954786,00002.876485,00003.407623,00002.892722,00003.018405,-00000.395735,-00000.047416,-00000.522649,-00000.060656,-00000.075737,-00000.078456
0000000002291,00002.918459,00002.778609,00002.522277,00003.315196,00003.015701,00002.954899,00002.876358,00003.407468,00002.892831,00003.018563,-00000.396087,-00000.047194,-00000.522601,-00000.060125,-00000.075193,-00000.078819
0000000002292,00002.918098,00002.778800,00002.521976,00003.315032,00003.015318,00002.954752,00002.876484,00003.407006,00002.893209,00003.018343,-00000.396388,-00000.046896,-00000.522569,-00000.059618,-00000.074633,-00000.079124
0000000002293,00002.918385,00002.778651,00002.521979,00003.314899,00003.014952,00002.954847,00002.876376,00003.407236,00002.893303,00003.018115,-00000.396687,-00000.046706,-00000.522528,-00000.059529,-00000.073807,-00000.079071
0000000002294,00002.918440,00002.778814,00002.522086,00003.315122,00003.014627,00002.955085,00002.876121,00003.407206,00002.893624,00003.017928,-00000.397306,-00000.046815,-00000.522501,-00000.059460,-00000.073331,-00000.078968
0000000002295,00002.917959,00002.779050,00002.522089,00003.315372,00003.014315,00002.954804,00002.876392,00003.407039,00002.894066,00003.017733,-00000.397923,-00000.046654,-00000.522465,-00000.059384,-00000.072990,-00000.078922
0000000002296,00002.918005,00002.779188,00002.522180,00003.315925,00003.014401,00002.954643,00002.876538,00003.406651,00002.894340,00003.017937,-00000.398450,-00000.046384,-00000.522443,-00000.058962,-00000.072222,-00000.078835
0000000002297,00002.917959,00002.779026,00002.521820,00003.315775,00003.014136,00002.954767,00002.876405,00003.406509,00002.894354,00003.018134,-00000.398976,-00000.046247,-00000.522050,-00000.058535,-00000.071569,-00000.078796
0000000002298,00002.917998,00002.779144,00002.521897,00003.315882,00003.014209,00002.954630,00002.876167,00003.406541,00002.894587,00003.017945,-00000.399787,-00000.046017,-00000.521668,-00000.058176,-00000.070915,-00000.078721
0000000002299,00002.918321,00002.779006,00002.522316,00003.315755,00003.013983,00002.954735,00002.876054,00003.406783,00002.894599,00003.018112,-00000.400597,-00000.045900,-00000.521333,-00000.057812,-00000.070722,-00000.078688
0000000002300,00002.918718,00002.778744,00002.522382,00003.315484,00003.014046,00002.954619,00002.875851,00003.406810,00002.894435,00003.018314,-00000.401650,-00000.045705,-00000.521008,-00000.057870,-00000.070528,-00000.078262
0000000002301,00002.918993,00002.778989,00002.522738,00003.315375,00003.014216,00002.954708,00002.875755,00003.407379,00002.894444,00003.018820,-00000.402703,-00000.045605,-00000.521086,-00000.057560,-00000.070001,-00000.077871
0000000002302,00002.919331,00002.778766,00002.522794,00003.315144,00003.013906,00002.954972,00002.875219,00003.407765,00002.894305,00003.018991,-00000.403963,-00000.045439,-00000.521172,-00000.057246,-00000.069473,-00000.077508
0000000002303,00002.919202,00002.778975,00002.522735,00003.315414,00003.013689,00002.955048,00002.875137,00003.407160,00002.894313,00003.018696,-00000.405222,-00000.045354,-00000.520875,-00000.056982,-00000.069025,-00000.077175
0000000002304,00002.919127,00002.779147,00002.522420,00003.315580,00003.013788,00002.955273,00002.875407,00003.407126,00002.894557,00003.018842,-00000.406294,-00000.045212,-00000.520585,-00000.056715,-00000.068575,-00000.076867
0000000002305,00002.918654,00002.779325,00002.522007,00003.315448,00003.013603,00002.954975,00002.875700,00003.406612,00002.894564,00003.018591,-00000.407366,-00000.045140,-00000.520333,-00000.056490,-00000.068193,-00000.076583
0000000002306,00002.918953,00002.779472,00002.522464,00003.314864,00003.013687,00002.954803,00002.875930,00003.406583,00002.894409,00003.018715,-00000.408278,-00000.045019,-00000.520086,-00000.056626,-00000.068173,-00000.075958
0000000002307,00002.919276,00002.779261,00002.522475,00003.314388,00003.013892,00002.954912,00002.875817,00003.406870,00002.894415,00003.018864,-00000.409554,-00000.044958,-00000.520234,-00000.056797,-00000.067848,-00000.075354
0000000002308,00002.919168,00002.779023,00002.522139,00003.314254,00003.013238,00002.955129,00002.876012,00003.406846,00002.894645,00003.018607,-00000.410693,-00000.044855,-00000.520387,-00000.056550,-00000.067106,-00000.074821
0000000002309,00002.919443,00002.778843,00002.522511,00003.314211,00003.013413,00002.955222,00002.875916,00003.407091,00002.894651,00003.018734,-00000.412142,-00000.044803,-00000.520151,-00000.056333,-00000.066466,-00000.074307
0000000002310,00002.919713,00002.778641,00002.522225,00003.313734,00003.013582,00002.955407,00002.875719,00003.407432,00002.894484,00003.018878,-00000.413475,-00000.044716,-00000.519918,-00000.056122,-00000.065471,-00000.074216
0000000002311,00002.919222,00002.778850,00002.521816,00003.313698,00003.013368,00002.955123,00002.876000,00003.407278,00002.894488,00003.018623,-00000.414708,-00000.044671,-00000.520079,-00000.055938,-00000.064927,-00000.074141
0000000002312,00002.919815,00002.778678,00002.522298,00003.313292,00003.013874,00002.954917,00002.876195,00003.407569,00002.894347,00003.018746,-00000.415843,-00000.044597,-00000.519881,-00000.055758,-00000.064443,-00000.074064
0000000002313,00002.920485,00002.778856,00002.522313,00003.313624,00003.013692,00002.955038,00002.876434,00003.407800,00002.894713,00003.018891,-00000.417255,-00000.044559,-00000.519655,-00000.055601,-00000.063979,-00000.074000
0000000002314,00002.920628,00002.779435,00002.521997,00003.314004,00003.013760,00002.954863,00002.876601,00003.407685,00002.894955,00003.018996,-00000.418584,-00000.044495,-00000.519487,-00000.055086,-00000.063204,-00000.073934
0000000002315,00002.921198,00002.779224,00002.522010,00003.313924,00003.013968,00002.954966,00002.876441,00003.408245,00002.894905,00003.019120,-00000.420149,-00000.044463,-00000.519295,-00000.054589,-00000.062447,-00000.073880
0000000002316,00002.921682,00002.778992,00002.522104,00003.313884,00003.014026,00002.955180,00002.876583,00003.408510,00002.894748,00003.019209,-00000.421643,-00000.044409,-00000.519151,-00000.054513,-00000.061787,-00000.073824
0000000002317,00002.922167,00002.778812,00002.522115,00003.313453,00003.014566,00002.954905,00002.876810,00003.408623,00002.894705,00003.019677,-00000.422976,-00000.044382,-00000.518988,-00000.054090,-00000.061143,-00000.073778
0000000002318,00002.922216,00002.778977,00002.521832,00003.313420,00003.014978,00002.954724,00002.877294,00003.408486,00002.894934,00003.019390,-00000.424248,-00000.044336,-00000.518866,-00000.054026,-00000.060581,-00000.073730
0000000002319,00002.922267,00002.779187,00002.521116,00003.314504,00003.015800,00002.955216,00002.877487,00003.408583,00002.895623,00003.019426,-00000.425745,-00000.044313,-00000.518726,-00000.053666,-00000.059669,-00000.074054
0000000002320,00002.923034,00002.778964,00002.520875,00003.314475,00003.016152,00002.955425,00002.877173,00003.408829,00002.895456,00003.019545,-00000.426828,-00000.044273,-00000.518622,-00000.053248,-00000.058829,-00000.074376
0000000002321,00002.923803,00002.779143,00002.520991,00003.314310,00003.016851,00002.955480,00002.877338,00003.408548,00002.895679,00003.019575,-00000.427739,-00000.044254,-00000.518504,-00000.052942,-00000.058052,-00000.074651
0000000002322,00002.924456,00002.779316,00002.521149,00003.313923,00003.017876,00002.955658,00002.877433,00003.408395,00002.895899,00003.019676,-00000.428298,-00000.044220,-00000.518415,-00000.052586,-00000.057337,-00000.075288
0000000002323,00002.925111,00002.779468,00002.521248,00003.313782,00003.018109,00002.955706,00002.877573,00003.408156,00002.895727,00003.019339,-00000.428349,-00000.044203,-00000.518314,-00000.051962,-00000.056676,-00000.075886
0000000002324,00002.925667,00002.779979,00002.521382,00003.314178,00003.018618,00002.955857,00002.878380,00003.408388,00002.896277,00003.019425,-00000.428099,-00000.044175,-00000.518239,-00000.051297,-00000.056066,-00000.076791
0000000002325,00002.926224,00002.780471,00002.521103,00003.314421,00003.018817,00002.955897,00002.878862,00003.408548,00002.896856,00003.019138,-00000.427779,-00000.044161,-00000.518153,-00000.050766,-00000.055141,-00000.077662
0000000002326,00002.926697,00002.780543,00002.520855,00003.314033,00003.018887,00002.955663,00002.879186,00003.408746,00002.896962,00003.018849,-00000.426841,-00000.044136,-00000.518089,-00000.049836,-00000.054260,-00000.078433
0000000002327,00002.927897,00002.780599,00002.520980,00003.313877,00003.018693,00002.956060,00002.879234,00003.409607,00002.897092,00003.018967,-00000.425481,-00000.044124,-00000.518016,-00000.049022,-00000.053472,-00000.079537
0000000002328,00002.929751,00002.780660,00002.521132,00003.313909,00003.018391,00002.956587,00002.879510,00003.410501,00002.897181,00003.019084,-00000.423593,-00000.044466,-00000.517961,-00000.048230,-00000.052359,-00000.080919
0000000002329,00002.931498,00002.780345,00002.521239,00003.313776,00003.018226,00002.956925,00002.879913,00003.411234,00002.897292,00003.019185,-00000.421347,-00000.044456,-00000.517899,-00000.047174,-00000.051325,-00000.081859
0000000002330,00002.932714,00002.780397,00002.521005,00003.314166,00003.017243,00002.957373,00002.880148,00003.411270,00002.897369,00003.018921,-00000.419378,-00000.044747,-00000.518215,-00000.046138,-00000.050378,-00000.082672
0000000002331,00002.934564,00002.780855,00002.521095,00003.314416,00003.017102,00002.957661,00002.880854,00003.411531,00002.897826,00003.019007,-00000.417465,-00000.045101,-00000.518162,-00000.045238,-00000.049135,-00000.083472
0000000002332,00002.936687,00002.780899,00002.521259,00003.314386,00003.016628,00002.958042,00002.880691,00003.411924,00002.897891,00003.019145,-00000.415426,-00000.045349,-00000.518069,-00000.043993,-00000.047603,-00000.084165
0000000002333,00002.938262,00002.781288,00002.520974,00003.314598,00003.016146,00002.958287,00002.880930,00003.412147,00002.898280,00003.019218,-00000.413435,-00000.045288,-00000.518024,-00000.042865,-00000.045820,-00000.084846
0000000002334,00002.939707,00002.781689,00002.520750,00003.314935,00003.015742,00002.958612,00002.881517,00003.412481,00002.899061,00003.019336,-00000.411699,-00000.045136,-00000.517944,-00000.041442,-00000.043789,-00000.085436
0000000002335,00002.941411,00002.781657,00002.520870,00003.315116,00003.015331,00002.959183,00002.881719,00003.413033,00002.899392,00003.019398,-00000.410004,-00000.045084,-00000.517906,-00000.040119,-00000.041909,-00000.086379
0000000002336,00002.943003,00002.781998,00002.520680,00003.315402,00003.014988,00002.959460,00002.881856,00003.413318,00002.899694,00003.019498,-00000.408526,-00000.044955,-00000.517838,-00000.038908,-00000.040180,-00000.086880
0000000002337,00002.944091,00002.781972,00002.520419,00003.315557,00003.014638,00002.959946,00002.882029,00003.413063,00002.899976,00003.019551,-00000.407083,-00000.044910,-00000.517805,-00000.037781,-00000.038579,-00000.087320
0000000002338,00002.945447,00002.782262,00002.520257,00003.315801,00003.014346,00002.960182,00002.882146,00003.412579,00002.900233,00003.019274,-00000.405825,-00000.044800,-00000.517748,-00000.036750,-00000.037108,-00000.087747
0000000002339,00002.947098,00002.782239,00002.520398,00003.315569,00003.014411,00002.960233,00002.882655,00003.412725,00002.900836,00003.019682,-00000.404597,-00000.044762,-00000.517720,-00000.035791,-00000.035382,-00000.088485
0000000002340,00002.948615,00002.782124,00002.520623,00003.315777,00003.014162,00002.960433,00002.882755,00003.412676,00002.901055,00003.019808,-00000.403163,-00000.044669,-00000.517671,-00000.034550,-00000.033767,-00000.089574
0000000002341,00002.950021,00002.782467,00002.520380,00003.315942,00003.013854,00002.960840,00002.882826,00003.412074,00002.901205,00003.019793,-00000.401755,-00000.044636,-00000.517647,-00000.033008,-00000.031935,-00000.090927
0000000002342,00002.951312,00002.782731,00002.520571,00003.316119,00003.013642,00002.961373,00002.882910,00003.412033,00002.901755,00003.019538,-00000.400534,-00000.044194,-00000.517605,-00000.031590,-00000.030197,-00000.092217
0000000002343,00002.952509,00002.783024,00002.520364,00003.316260,00003.013381,00002.961356,00002.882971,00003.411158,00002.902245,00003.019162,-00000.399335,-00000.044166,-00000.517585,-00000.029914,-00000.028274,-00000.093369
0000000002344,00002.953608,00002.783249,00002.520528,00003.316048,00003.013563,00002.961448,00002.883406,00003.411123,00002.902713,00003.019307,-00000.398296,-00000.044153,-00000.517549,-00000.028343,-00000.026069,-00000.094105
0000000002345,00002.954627,00002.783861,00002.520714,00003.315805,00003.013703,00002.961433,00002.884183,00003.410741,00002.903131,00003.019713,-00000.396912,-00000.043766,-00000.517169,-00000.026917,-00000.023707,-00000.094722
0000000002346,00002.955200,00002.784052,00002.520853,00003.315624,00003.013858,00002.961511,00002.884190,00003.410348,00002.903166,00003.020200,-00000.396028,-00000.043755,-00000.516776,-00000.025580,-00000.021104,-00000.095348
0000000002347,00002.955705,00002.784210,00002.520649,00003.315055,00003.014340,00002.961136,00002.884489,00003.410022,00002.903522,00003.020182,-00000.395213,-00000.043426,-00000.516816,-00000.024366,-00000.018731,-00000.096237
0000000002348,00002.956555,00002.784736,00002.520405,00003.315264,00003.015198,00002.961202,00002.884858,00003.409688,00002.903914,00003.020234,-00000.394460,-00000.043053,-00000.516844,-00000.023227,-00000.016878,-00000.097496
0000000002349,00002.957710,00002.784870,00002.520231,00003.315505,00003.015608,00002.961609,00002.884749,00003.409774,00002.903854,00003.020581,-00000.393766,-00000.042773,-00000.516877,-00000.022194,-00000.015583,-00000.099341
0000000002350,00002.958435,00002.784955,00002.520385,00003.314957,00003.016339,00002.961302,00002.885064,00003.409489,00002.903826,00003.020625,-00000.393125,-00000.042456,-00000.516901,-00000.021225,-00000.014368,-00000.101501
0000000002351,00002.959418,00002.785070,00002.520601,00003.314799,00003.017051,00002.961285,00002.885697,00003.409199,00002.904138,00003.020559,-00000.392171,-00000.042217,-00000.516567,-00000.020345,-00000.013266,-00000.104160
0000000002352,00002.960034,00002.785142,00002.520732,00003.314333,00003.017672,00002.961387,00002.885602,00003.408957,00002.904476,00003.020596,-00000.391263,-00000.041584,-00000.516224,-00000.019157,-00000.012232,-00000.107449
0000000002353,00002.960872,00002.784877,00002.521278,00003.314561,00003.017916,00002.961736,00002.885415,00003.409073,00002.904379,00003.020902,-00000.390451,-00000.041019,-00000.515940,-00000.018045,-00000.011293,-00000.110439
0000000002354,00002.961396,00002.785301,00002.521027,00003.314890,00003.018445,00002.961822,00002.885697,00003.408504,00002.905030,00003.020571,-00000.389678,-00000.040480,-00000.515648,-00000.017034,-00000.010050,-00000.113239
0000000002355,00002.961746,00002.785801,00002.520766,00003.314722,00003.019015,00002.961756,00002.885901,00003.408240,00002.905672,00003.020469,-00000.389350,-00000.039998,-00000.515406,-00000.016087,-00000.008888,-00000.115784
0000000002356,00002.961830,00002.785799,00002.520553,00003.314639,00003.019103,00002.961467,00002.886140,00003.407756,00002.906227,00003.020550,-00000.389054,-00000.039540,-00000.515521,-00000.015226,-00000.007104,-00000.118531
0000000002357,00002.961765,00002.785862,00002.520331,00003.314495,00003.018862,00002.961774,00002.885951,00003.407531,00002.907137,00003.020463,-00000.388775,-00000.039492,-00000.515677,-00000.014421,-00000.005027,-00000.121060
0000000002358,00002.961474,00002.785860,00002.519786,00003.314425,00003.018574,00002.961890,00002.885793,00003.407119,00002.907971,00003.020532,-00000.388886,-00000.039465,-00000.515775,-00000.013688,-00000.002783,-00000.123399
0000000002359,00002.961419,00002.786276,00002.519597,00003.314303,00003.018732,00002.961789,00002.885994,00003.406927,00002.909471,00003.020820,-00000.389011,-00000.039425,-00000.515908,-00000.013002,-00000.000651,-00000.125189
0000000002360,00002.961533,00002.786275,00002.519496,00003.313880,00003.018850,00002.961888,00002.886222,00003.406576,00002.910545,00003.021242,-00000.389105,-00000.039401,-00000.515991,-00000.012378,00000.001259,-00000.126817
0000000002361,00002.961849,00002.786267,00002.519335,00003.314139,00003.018622,00002.962164,00002.886031,00003.406414,00002.911822,00003.021125,-00000.388849,-00000.039004,-00000.516105,-00000.011794,00000.002711,-00000.128341
0000000002362,00002.961947,00002.786266,00002.519250,00003.314142,00003.018722,00002.962249,00002.885862,00003.406115,00002.913098,00003.021484,-00000.388567,-00000.038258,-00000.516176,-00000.011626,00000.003974,-00000.130090
0000000002363,00002.961853,00002.786258,00002.519113,00003.313636,00003.019253,00002.962121,00002.886062,00003.405976,00002.914185,00003.022110,-00000.387986,-00000.037920,-00000.516272,-00000.011491,00000.004847,-00000.131024
0000000002364,00002.961573,00002.786258,00002.519039,00003.313276,00003.019338,00002.961830,00002.885919,00003.405722,00002.914909,00003.022415,-00000.387382,-00000.037648,-00000.516332,-00000.011348,00000.005197,-00000.131787
0000000002365,00002.961856,00002.785889,00002.519286,00003.313209,00003.019791,00002.962084,00002.885726,00003.405966,00002.915109,00003.022585,-00000.386888,-00000.037361,-00000.516415,-00000.011234,00000.005940,-00000.132946
0000000002366,00002.962344,00002.785525,00002.518861,00003.313265,00003.019863,00002.962200,00002.885241,00003.406113,00002.915725,00003.022845,-00000.386374,-00000.037129,-00000.516466,-00000.011112,00000.006964,-00000.133958
0000000002367,00002.962584,00002.785574,00002.519070,00003.313208,00003.020248,00002.962053,00002.885440,00003.405958,00002.916621,00003.023353,-00000.386316,-00000.037247,-00000.516899,-00000.011377,00000.007959,-00000.134944
0000000002368,00002.962636,00002.785990,00002.519071,00003.313618,00003.020673,00002.962514,00002.885753,00003.406083,00002.917509,00003.023574,-00000.386242,-00000.037050,-00000.517305,-00000.011636,00000.008831,-00000.135806
0000000002369,00002.962841,00002.786031,00002.519250,00003.313932,00003.020638,00002.962752,00002.885196,00003.406314,00002.917908,00003.023644,-00000.386192,-00000.037150,-00000.517674,-00000.011862,00000.009678,-00000.136646
0000000002370,00002.962886,00002.786023,00002.519250,00003.313919,00003.020274,00002.963144,00002.885100,00003.406420,00002.918301,00003.023469,-00000.385766,-00000.036983,-00000.518382,-00000.012083,00000.010420,-00000.137742
0000000002371,00002.961972,00002.785695,00002.518314,00003.313823,00003.019881,00002.962984,00002.884989,00003.405891,00002.918641,00003.023166,-00000.385361,-00000.036705,-00000.518696,-00000.012638,00000.010779,-00000.139182
0000000002372,00002.961284,00002.785325,00002.518315,00003.313086,00003.019934,00002.962593,00002.884907,00003.405619,00002.918613,00003.023017,-00000.384636,-00000.036562,-00000.518937,-00000.013188,00000.010684,-00000.140479
0000000002373,00002.960506,00002.785409,00002.518243,00003.313005,00003.019963,00002.962456,00002.884812,00003.405169,00002.918903,00003.023121,-00000.383928,-00000.036326,-00000.519204,-00000.013298,00000.010627,-00000.142067
0000000002374,00002.960284,00002.785094,00002.518606,00003.313103,00003.020007,00002.962849,00002.884742,00003.405299,00002.918878,00003.023721,-00000.383310,-00000.036205,-00000.519408,-00000.013767,00000.010910,-00000.143534
0000000002375,00002.959621,00002.784440,00002.518545,00003.313034,00003.020032,00002.962733,00002.884662,00003.405279,00002.918762,00003.024172,-00000.382708,-00000.036004,-00000.519636,-00000.014223,00000.011223,-00000.144886
0000000002376,00002.959432,00002.784172,00002.518855,00003.313480,00003.020070,00002.963066,00002.884602,00003.405753,00002.918742,00003.024319,-00000.382182,-00000.035900,-00000.519810,-00000.014622,00000.011464,-00000.145772
0000000002377,00002.958505,00002.784340,00002.518440,00003.313784,00003.019728,00002.962968,00002.884534,00003.405373,00002.919005,00003.024341,-00000.381669,-00000.035729,-00000.520004,-00000.015010,00000.012094,-00000.146561
0000000002378,00002.958344,00002.784112,00002.518703,00003.313801,00003.020123,00002.962889,00002.884483,00003.405414,00002.918988,00003.024466,-00000.381585,-00000.035641,-00000.520152,-00000.015713,00000.013025,-00000.147314
0000000002379,00002.957918,00002.783893,00002.518350,00003.314060,00003.020195,00002.962805,00002.884425,00003.404727,00002.919213,00003.024122,-00000.381148,-00000.035495,-00000.520680,-00000.016406,00000.013924,-00000.147986
0000000002380,00002.957780,00002.783699,00002.517849,00003.314438,00003.020169,00002.963101,00002.884019,00003.404399,00002.919560,00003.023866,-00000.381076,-00000.035420,-00000.521169,-00000.017004,00000.014716,-00000.148627
0000000002381,00002.958143,00002.783512,00002.518274,00003.314295,00003.020592,00002.963755,00002.883970,00003.405266,00002.919752,00003.024298,-00000.381067,-00000.035296,-00000.521255,-00000.017595,00000.015481,-00000.149562
0000000002382,00002.957663,00002.783709,00002.518210,00003.314254,00003.020933,00002.963644,00002.884350,00003.404987,00002.920048,00003.024080,-00000.381006,-00000.035232,-00000.521671,-00000.018104,00000.016155,-00000.150108
0000000002383,00002.957610,00002.783913,00002.518209,00003.314858,00003.020931,00002.963838,00002.884307,00003.404999,00002.919848,00003.024086,-00000.380998,-00000.035127,-00000.522108,-00000.018606,00000.016444,-00000.150903
0000000002384,00002.957201,00002.784081,00002.518154,00003.315185,00003.020858,00002.964106,00002.884268,00003.405124,00002.919737,00003.023900,-00000.380583,-00000.035072,-00000.522462,-00000.019040,00000.016655,-00000.151369
0000000002385,00002.957155,00002.783892,00002.517428,00003.315337,00003.020856,00002.964272,00002.884232,00003.405498,00002.919567,00003.023905,-00000.380214,-00000.034982,-00000.522834,-00000.019467,00000.016901,-00000.152046
0000000002386,00002.957170,00002.784035,00002.517382,00003.315616,00003.020794,00002.964500,00002.884199,00003.405604,00002.919472,00003.023747,-00000.379860,-00000.034936,-00000.523135,-00000.019474,00000.017081,-00000.152804
0000000002387,00002.957131,00002.783874,00002.517489,00003.315019,00003.020792,00002.964641,00002.884168,00003.405922,00002.919328,00003.024113,-00000.379546,-00000.034860,-00000.523451,-00000.019475,00000.016928,-00000.153381
0000000002388,00002.957144,00002.783633,00002.517449,00003.314894,00003.021102,00002.964835,00002.883777,00003.406013,00002.918885,00003.024342,-00000.379245,-00000.034820,-00000.523346,-00000.019480,00000.016718,-00000.153664
0000000002389,00002.956385,00002.783859,00002.517541,00003.315111,00003.021464,00002.964592,00002.883751,00003.405558,00002.919124,00003.024291,-00000.379341,-00000.034755,-00000.523252,-00000.019481,00000.016587,-00000.153429
0000000002390,00002.956034,00002.784017,00002.517507,00003.315730,00003.021728,00002.964758,00002.884143,00003.405635,00002.919472,00003.024485,-00000.379084,-00000.034722,-00000.523162,-00000.019486,00000.016409,-00000.152944
0000000002391,00002.955388,00002.783846,00002.517222,00003.315190,00003.021673,00002.964551,00002.884121,00003.405247,00002.919313,00003.024442,-00000.378803,-00000.035029,-00000.523082,-00000.019487,00000.016297,-00000.152019
0000000002392,00002.954725,00002.783254,00002.517193,00003.314628,00003.021172,00002.964329,00002.883367,00003.404950,00002.918884,00003.024245,-00000.378585,-00000.035363,-00000.523005,-00000.019491,00000.015783,-00000.150881
0000000002393,00002.954175,00002.783109,00002.517313,00003.313806,00003.020399,00002.964515,00002.882985,00003.404620,00002.918386,00003.024208,-00000.378345,-00000.035625,-00000.523300,-00000.019492,00000.015325,-00000.148279
0000000002394,00002.952523,00002.782969,00002.517289,00003.313328,00003.019973,00002.964689,00002.882706,00003.404730,00002.918021,00003.024766,-00000.377796,-00000.035909,-00000.523598,-00000.019495,00000.014887,-00000.144771
0000000002395,00002.950604,00002.783208,00002.517028,00003.312990,00003.020041,00002.964485,00002.882744,00003.404450,00002.917960,00003.025097,-00000.377592,-00000.036132,-00000.523849,-00000.019495,00000.014135,-00000.141467
0000000002396,00002.948472,00002.783088,00002.517008,00003.312946,00003.019315,00002.964271,00002.882869,00003.404180,00002.918012,00003.025209,-00000.377125,-00000.036374,-00000.524102,-00000.019135,00000.013762,-00000.137755
0000000002397,00002.946838,00002.782566,00002.516786,00003.312296,00003.019010,00002.964097,00002.882538,00003.404304,00002.917960,00003.025129,-00000.376226,-00000.036564,-00000.524316,-00000.018773,00000.013847,-00000.134217
0000000002398,00002.945386,00002.782464,00002.516405,00003.312258,00003.018755,00002.963914,00002.882282,00003.404438,00002.918004,00003.025587,-00000.375829,-00000.037133,-00000.524531,-00000.018467,00000.013529,-00000.130694
0000000002399,00002.943632,00002.782382,00002.516579,00003.311342,00003.018495,00002.963404,00002.882001,00003.403818,00002.917959,00003.025881,-00000.375063,-00000.037657,-00000.524713,-00000.018158,00000.013239,-00000.126957
0000000002400,00002.942033,00002.782658,00002.516618,00003.311310,00003.017915,00002.963611,00002.882145,00003.403568,00002.918723,00003.025908,-00000.374725,-00000.038142,-00000.525260,-00000.017897,00000.012969,-00000.122869
0000000002401,00002.940177,00002.782589,00002.516766,00003.310893,00003.017694,00002.963176,00002.881906,00003.403040,00002.919410,00003.026158,-00000.374436,-00000.038951,-00000.525777,-00000.017635,00000.012722,-00000.118237
0000000002402,00002.939178,00002.782461,00002.517162,00003.310865,00003.018289,00002.962990,00002.882391,00003.403191,00002.920060,00003.026907,-00000.374510,-00000.039726,-00000.525880,-00000.017413,00000.012491,-00000.113668
0000000002403,00002.937236,00002.782765,00002.517288,00003.311236,00003.017738,00002.962983,00002.882550,00003.402742,00002.921008,00003.027120,-00000.374627,-00000.040415,-00000.526320,-00000.017552,00000.011918,-00000.108999
0000000002404,00002.935297,00002.782293,00002.516900,00003.310850,00003.017156,00002.962461,00002.882238,00003.402144,00002.921562,00003.027032,-00000.374691,-00000.041437,-00000.527133,-00000.017726,00000.011360,-00000.104747
0000000002405,00002.934006,00002.781826,00002.517007,00003.310802,00003.017050,00002.962092,00002.882374,00003.402125,00002.922006,00003.027214,-00000.374790,-00000.042386,-00000.527871,-00000.017845,00000.010872,-00000.100410
0000000002406,00002.933082,00002.781787,00002.517402,00003.310836,00003.016917,00002.962011,00002.882471,00003.401979,00002.922477,00003.027864,-00000.375207,-00000.043620,-00000.528926,-00000.018355,00000.010396,-00000.096427
0000000002407,00002.931983,00002.781390,00002.517493,00003.310796,00003.016827,00002.961697,00002.882586,00003.401962,00002.922855,00003.028019,-00000.376017,-00000.044791,-00000.529554,-00000.018819,00000.010343,-00000.092734
0000000002408,00002.930833,00002.781719,00002.517829,00003.311188,00003.016351,00002.961628,00002.882669,00003.401475,00002.923619,00003.028210,-00000.377098,-00000.046203,-00000.530089,-00000.019617,00000.010301,-00000.088982
0000000002409,00002.929535,00002.781381,00002.518633,00003.311153,00003.015548,00002.961360,00002.882404,00003.401461,00002.923941,00003.028341,-00000.378151,-00000.047926,-00000.530986,-00000.020374,00000.009894,-00000.084750
0000000002410,00002.927830,00002.781299,00002.518556,00003.311124,00003.014418,00002.961302,00002.882112,00003.401047,00002.924954,00003.028504,-00000.379796,-00000.049491,-00000.531805,-00000.021053,00000.009132,-00000.079741
0000000002411,00002.926725,00002.781374,00002.519240,00003.311458,00003.013734,00002.961437,00002.881886,00003.401034,00002.925591,00003.028616,-00000.381418,-00000.051320,-00000.532932,-00000.021698,00000.008422,-00000.075050
0000000002412,00002.925274,00002.781667,00002.519538,00003.311433,00003.013135,00002.961024,00002.882000,00003.400682,00002.926090,00003.028754,-00000.383181,-00000.053378,-00000.533991,-00000.021913,00000.007774,-00000.070786
0000000002413,00002.923970,00002.782093,00002.519757,00003.310991,00003.012190,00002.960413,00002.881808,00003.400308,00002.926633,00003.028487,-00000.385287,-00000.055298,-00000.535313,-00000.022462,00000.007170,-00000.067155
0000000002414,00002.923098,00002.782705,00002.521824,00003.310970,00003.012042,00002.960425,00002.881905,00003.400371,00002.927058,00003.028967,-00000.387151,-00000.057050,-00000.536578,-00000.023008,00000.006618,-00000.064251
0000000002415,00002.922351,00002.783068,00002.523462,00003.311320,00003.011238,00002.960993,00002.881742,00003.400779,00002.927520,00003.029102,-00000.388944,-00000.058685,-00000.537703,-00000.023113,00000.006467,-00000.061522
0000000002416,00002.921608,00002.783226,00002.525222,00003.311665,00003.010750,00002.960640,00002.881462,00003.400832,00002.927882,00003.029149,-00000.390531,-00000.060176,-00000.538417,-00000.022852,00000.005997,-00000.058687
0000000002417,00002.920609,00002.783535,00002.526979,00003.311962,00003.010428,00002.960762,00002.881322,00003.400816,00002.928275,00003.029626,-00000.392057,-00000.061568,-00000.539012,-00000.022578,00000.005142,-00000.055276
0000000002418,00002.919614,00002.783670,00002.528477,00003.313707,00003.010012,00002.960824,00002.881084,00003.400862,00002.928220,00003.029666,-00000.393771,-00000.062837,-00000.539257,-00000.021631,00000.004017,-00000.051049
0000000002419,00002.918401,00002.783933,00002.529973,00003.313960,00003.009738,00002.960927,00002.880966,00003.400848,00002.928555,00003.029710,-00000.395433,-00000.064022,-00000.539038,-00000.020309,00000.002564,-00000.046694
0000000002420,00002.917191,00002.784774,00002.530886,00003.313631,00003.009022,00002.960617,00002.881125,00003.400161,00002.928871,00003.029381,-00000.396892,-00000.065103,-00000.539247,-00000.019140,00000.001243,-00000.042732
0000000002421,00002.916158,00002.784998,00002.532159,00003.313484,00003.008426,00002.960342,00002.881024,00003.400150,00002.928793,00003.029418,-00000.398307,-00000.066111,-00000.539061,-00000.018015,00000.000006,-00000.039025
0000000002422,00002.915128,00002.784987,00002.533299,00003.312479,00003.007815,00002.960441,00002.881160,00003.400291,00002.929425,00003.029501,-00000.399912,-00000.067394,-00000.538875,-00000.017019,-00000.000756,-00000.036015
0000000002423,00002.913886,00002.785541,00002.533295,00003.311991,00003.007308,00002.960570,00002.881437,00003.399918,00002.930084,00003.029532,-00000.401116,-00000.068615,-00000.538354,-00000.015336,-00000.001084,-00000.033585
0000000002424,00002.913010,00002.785895,00002.533177,00003.310772,00003.007151,00002.960654,00002.881553,00003.400038,00002.930622,00003.029603,-00000.401757,-00000.069345,-00000.537471,-00000.013400,-00000.001369,-00000.031748
0000000002425,00002.911952,00002.786003,00002.532810,00003.308906,00003.006720,00002.960038,00002.881789,00003.399358,00002.930820,00003.029630,-00000.402057,-00000.070022,-00000.536664,-00000.011604,-00000.001285,-00000.030042
0000000002426,00002.910843,00002.786305,00002.532347,00003.307143,00003.006586,00002.959747,00002.881525,00003.398372,00002.931279,00003.029327,-00000.401877,-00000.070280,-00000.535549,-00000.009956,-00000.000803,-00000.028841
0000000002427,00002.909580,00002.786760,00002.532035,00003.305553,00003.006581,00002.959586,00002.881363,00003.397793,00002.931810,00003.029713,-00000.401043,-00000.070130,-00000.534500,-00000.009153,-00000.000006,-00000.028477
0000000002428,00002.909362,00002.786654,00002.532003,00003.304415,00003.006831,00002.959701,00002.881138,00003.398042,00002.931837,00003.030543,-00000.399439,-00000.069625,-00000.533551,-00000.009564,00000.000405,-00000.028906
0000000002429,00002.909012,00002.787404,00002.532100,00003.303425,00003.007189,00002.959563,00002.881363,00003.398275,00002.931927,00003.030509,-00000.396916,-00000.068409,-00000.532295,-00000.011420,-00000.000005,-00000.030773
0000000002430,00002.908100,00002.788039,00002.531710,00003.303182,00003.007401,00002.959298,00002.881534,00003.398486,00002.931950,00003.030853,-00000.393736,-00000.066890,-00000.532212,-00000.015398,-00000.000744,-00000.032226
0000000002431,00002.907803,00002.788315,00002.531793,00003.303065,00003.006981,00002.959544,00002.881362,00003.398322,00002.931664,00003.030461,-00000.391588,-00000.066218,-00000.533320,-00000.020969,-00000.002181,-00000.032727
0000000002432,00002.907389,00002.788855,00002.531824,00003.301769,00003.006799,00002.960044,00002.881508,00003.398865,00002.931321,00003.030391,-00000.391783,-00000.066739,-00000.535426,-00000.027620,-00000.004261,-00000.032513
0000000002433,00002.907499,00002.789090,00002.532257,00003.300218,00003.005716,00002.959890,00002.881000,00003.399088,00002.930714,00003.030058,-00000.395033,-00000.068344,-00000.538546,-00000.035265,-00000.006936,-00000.031489
0000000002434,00002.906784,00002.789188,00002.531558,00003.298390,00003.004109,00002.959228,00002.881124,00003.398824,00002.930059,00003.028910,-00000.402093,-00000.070601,-00000.541790,-00000.043466,-00000.010158,-00000.031307
0000000002435,00002.905426,00002.789388,00002.530839,00003.295619,00003.002824,00002.958371,00002.881053,00003.399014,00002.928455,00003.026812,-00000.413204,-00000.072693,-00000.544809,-00000.050337,-00000.013523,-00000.033699
0000000002436,00002.902641,00002.789471,00002.529881,00003.292974,00003.000731,00002.957445,00002.880071,00003.398790,00002.926446,00003.024383,-00000.425744,-00000.074614,-00000.546845,-00000.055868,-00000.015903,-00000.037172
0000000002437,00002.900397,00002.789641,00002.528180,00003.290614,00003.000000,00002.956716,00002.879648,00003.398951,00002.924354,00003.022235,-00000.440282,-00000.076758,-00000.547964,-00000.059903,-00000.016591,-00000.041023
0000000002438,00002.898026,00002.789712,00002.526276,00003.287274,00002.999669,00002.955926,00002.879174,00003.399123,00002.922282,00003.020530,-00000.458213,-00000.079845,-00000.549335,-00000.063161,-00000.016078,-00000.046882
0000000002439,00002.895752,00002.789494,00002.524102,00003.284177,00002.999773,00002.955306,00002.878452,00003.399260,00002.920138,00003.018701,-00000.478208,-00000.083484,-00000.551012,-00000.066233,-00000.015938,-00000.053425
0000000002440,00002.893371,00002.789554,00002.522844,00003.281334,00003.000580,00002.954634,00002.878048,00003.399407,00002.918011,00003.016887,-00000.498915,-00000.086474,-00000.552542,-00000.069006,-00000.016952,-00000.059864
0000000002441,00002.891073,00002.789731,00002.521719,00003.279786,00003.001393,00002.954106,00002.877796,00003.399161,00002.916186,00003.015330,-00000.519927,-00000.089209,-00000.553970,-00000.071621,-00000.019373,-00000.065435
0000000002442,00002.887957,00002.789420,00002.519560,00003.277365,00003.001717,00002.953171,00002.877090,00003.398923,00002.913649,00003.013060,-00000.541908,-00000.091755,-00000.555273,-00000.073257,-00000.022776,-00000.069828
0000000002443,00002.883824,00002.789208,00002.517151,00003.275322,00003.002410,00002.952359,00002.876150,00003.398714,00002.910282,00003.011009,-00000.569229,-00000.093358,-00000.555400,-00000.072218,-00000.026650,-00000.073844
0000000002444,00002.879358,00002.788942,00002.514950,00003.271810,00003.004137,00002.951200,00002.874460,00003.398511,00002.905583,00003.008714,-00000.603541,-00000.094074,-00000.553969,-00000.069256,-00000.029184,-00000.077221
0000000002445,00002.873300,00002.788036,00002.512174,00003.264266,00003.006903,00002.949420,00002.872571,00003.398333,00002.899451,00003.006242,-00000.647116,-00000.094350,-00000.551538,-00000.065833,-00000.030306,-00000.079552
0000000002446,00002.866958,00002.787448,00002.508486,00003.255835,00003.009099,00002.948071,00002.870407,00003.397435,00002.892912,00003.003563,-00000.696280,-00000.094234,-00000.549232,-00000.062949,-00000.031012,-00000.080976
0000000002447,00002.860712,00002.787039,00002.505035,00003.247235,00003.011454,00002.946556,00002.868436,00003.396557,00002.886603,00003.000733,-00000.750789,-00000.093744,-00000.547525,-00000.060397,-00000.030516,-00000.082234
0000000002448,00002.854225,00002.786538,00002.501895,00003.237881,00003.014049,00002.945044,00002.866231,00003.395430,00002.880673,00002.998089,-00000.815498,-00000.092919,-00000.545561,-00000.057216,-00000.030029,-00000.084535
0000000002449,00002.848546,00002.786191,00002.499320,00003.227658,00003.016779,00002.944480,00002.863828,00003.394320,00002.874214,00002.995680,-00000.889836,-00000.089962,-00000.542294,-00000.052867,-00000.029606,-00000.086695
0000000002450,00002.842298,00002.785401,00002.497373,00003.217518,00003.019351,00002.943919,00002.861588,00003.393360,00002.867352,00002.992704,-00000.970319,-00000.084544,-00000.536995,-00000.046169,-00000.028103,-00000.087564
0000000002451,00002.836011,00002.785105,00002.494817,00003.206638,00003.022764,00002.943076,00002.859179,00003.392053,00002.860403,00002.989928,-00001.058636,-00000.076948,-00000.530586,-00000.037750,-00000.025204,-00000.086501
0000000002452,00002.829967,00002.785159,00002.492434,00003.195829,00003.026767,00002.943324,00002.857273,00003.391599,00002.853835,00002.987394,-00001.159439,-00000.068345,-00000.523172,-00000.029508,-00000.022473,-00000.083613
0000000002453,00002.823164,00002.784907,00002.487719,00003.185117,00003.030761,00002.942969,00002.855585,00003.390123,00002.847556,00002.984668,-00001.264010,-00000.058975,-00000.516991,-00000.021253,-00000.020005,-00000.080894
0000000002454,00002.816205,00002.784953,00002.483151,00003.174101,00003.033806,00002.942817,00002.853236,00003.389011,00002.841603,00002.981785,-00001.370865,-00000.049837,-00000.511405,-00000.013148,-00000.016592,-00000.079162
0000000002455,00002.808962,00002.785101,00002.479500,00003.162804,00003.037206,00002.942878,00002.851437,00003.388480,00002.835895,00002.979464,-00001.481291,-00000.041136,-00000.505417,-00000.004306,-00000.012314,-00000.077935
0000000002456,00002.801949,00002.785502,00002.475611,00003.151612,00003.040161,00002.942749,00002.849800,00003.387533,00002.830101,00002.976648,-00001.598016,-00000.031543,-00000.497759,00000.006221,-00000.007594,-00000.076823
0000000002457,00002.794695,00002.785629,00002.471777,00003.139456,00003.043055,00002.942437,00002.848268,00003.386356,00002.822702,00002.973221,-00001.718868,-00000.020870,-00000.489034,00000.017739,-00000.003590,-00000.074690
0000000002458,00002.788362,00002.785971,00002.467741,00003.127752,00003.045934,00002.942690,00002.846512,00003.385912,00002.814867,00002.969735,-00001.839640,-00000.010164,-00000.480338,00000.029241,-00000.000660,-00000.071567
0000000002459,00002.781824,00002.786078,00002.463752,00003.117403,00003.048760,00002.942788,00002.844845,00003.385273,00002.807118,00002.966092,-00001.961387,-00000.001078,-00000.472185,00000.039408,00000.000935,-00000.067937
0000000002460,00002.776070,00002.786732,00002.459228,00003.106351,00003.052662,00002.942640,00002.843712,00003.384896,00002.799360,00002.963124,-00002.087056,00000.006948,-00000.464419,00000.049925,00000.000889,-00000.063827
0000000002461,00002.770504,00002.787549,00002.454743,00003.096090,00003.055794,00002.942361,00002.842293,00003.384714,00002.790948,00002.960022,-00002.213555,00000.014320,-00000.456027,00000.061483,00000.001521,-00000.059286
0000000002462,00002.764518,00002.788831,00002.449803,00003.085593,00003.059841,00002.941873,00002.840967,00003.384030,00002.781079,00002.956770,-00002.340129,00000.021515,-00000.446877,00000.074427,00000.001845,-00000.054336
0000000002463,00002.752869,00002.791344,00002.439603,00003.063568,00003.068492,00002.940493,00002.838992,00003.382567,00002.761163,00002.950273,-00002.611439,00000.034641,-00000.427226,00000.106532,-00000.002057,-00000.042628
0000000002464,00002.747963,00002.792554,00002.435172,00003.053970,00003.072306,00002.940345,00002.838272,00003.382181,00002.752233,00002.947462,-00002.732053,00000.042106,-00000.417639,00000.121919,-00000.004123,-00000.039661
0000000002465,00002.742952,00002.793483,00002.430195,00003.044093,00003.075131,00002.940045,00002.837311,00003.382048,00002.742394,00002.943654,-00002.854741,00000.047992,-00000.409410,00000.135677,-00000.005016,-00000.037741
0000000002466,00002.738050,00002.794876,00002.425697,00003.035196,00003.078015,00002.939192,00002.836698,00003.381356,00002.733342,00002.940173,-00002.968303,00000.052896,-00000.403062,00000.148050,-00000.006050,-00000.034852
0000000002467,00002.733785,00002.796030,00002.421822,00003.026425,00003.081146,00002.938212,00002.836243,00003.380880,00002.724603,00002.937294,-00003.073835,00000.057907,-00000.397508,00000.159400,-00000.008261,-00000.030677
0000000002468,00002.729612,00002.797578,00002.417993,00003.018851,00003.083238,00002.937486,00002.835721,00003.380291,00002.716896,00002.934330,-00003.171962,00000.063533,-00000.392104,00000.170659,-00000.009867,-00000.026404
0000000002469,00002.725980,00002.798560,00002.415058,00003.011747,00003.085178,00002.937014,00002.835333,00003.380249,00002.709819,00002.932242,-00003.261802,00000.068524,-00000.387738,00000.181772,-00000.010298,-00000.022488
0000000002470,00002.722428,00002.800241,00002.412161,00003.005300,00003.087322,00002.936396,00002.835252,00003.380110,00002.703622,00002.930081,-00003.339895,00000.072588,-00000.385315,00000.191356,-00000.009125,-00000.019576
0000000002471,00002.718974,00002.801077,00002.409662,00002.999977,00003.089336,00002.935994,00002.834922,00003.380074,00002.699049,00002.927941,-00003.407669,00000.076837,-00000.383775,00000.199003,-00000.008404,-00000.018418
0000000002472,00002.716312,00002.801783,00002.407196,00002.994489,00003.090798,00002.935831,00002.834490,00003.380681,00002.695223,00002.926465,-00003.466531,00000.081385,-00000.382800,00000.205349,-00000.008131,-00000.018116
0000000002473,00002.714097,00002.802495,00002.405068,00002.989595,00003.091424,00002.935852,00002.834209,00003.381014,00002.691693,00002.924643,-00003.518060,00000.086091,-00000.382215,00000.211133,-00000.008242,-00000.017856
0000000002474,00002.711832,00002.803095,00002.402969,00002.986374,00003.091581,00002.935713,00002.833478,00003.380805,00002.688437,00002.922297,-00003.565992,00000.089237,-00000.382473,00000.215446,-00000.010187,-00000.016873
0000000002475,00002.709583,00002.804064,00002.401520,00002.982571,00003.092114,00002.935731,00002.833239,00003.381088,00002.683980,00002.920746,-00003.608407,00000.091429,-00000.383064,00000.218919,-00000.012821,-00000.015564
0000000002476,00002.707292,00002.804938,00002.399733,00002.978740,00003.092610,00002.935250,00002.832980,00003.380911,00002.680846,00002.919113,-00003.642319,00000.092293,-00000.384735,00000.221140,-00000.015565,-00000.013639
0000000002477,00002.705015,00002.805763,00002.397775,00002.976591,00003.092701,00002.934902,00002.832776,00003.380788,00002.679954,00002.917429,-00003.667543,00000.091619,-00000.388140,00000.221556,-00000.018171,-00000.010710
0000000002478,00002.703064,00002.806144,00002.396253,00002.974781,00003.092397,00002.934855,00002.832556,00003.380637,00002.678737,00002.915676,-00003.688431,00000.090904,-00000.391014,00000.221633,-00000.020144,-00000.007620
0000000002479,00002.701126,00002.806483,00002.394586,00002.972588,00003.092475,00002.934559,00002.832382,00003.380171,00002.677615,00002.914243,-00003.707727,00000.091056,-00000.393186,00000.222351,-00000.019822,-00000.005489
0000000002480,00002.699465,00002.807171,00002.393654,00002.970685,00003.092942,00002.934519,00002.832194,00003.380042,00002.676216,00002.913113,-00003.724421,00000.091898,-00000.394907,00000.222779,-00000.018962,-00000.004310
0000000002481,00002.698178,00002.807460,00002.392597,00002.968818,00003.093371,00002.934267,00002.832410,00003.380007,00002.674898,00002.911893,-00003.736131,00000.092391,-00000.397120,00000.222664,-00000.017963,-00000.004310
0000000002482,00002.696764,00002.808045,00002.391440,00002.967561,00003.093406,00002.934234,00002.832613,00003.380261,00002.676972,00002.910568,-00003.739459,00000.092019,-00000.400762,00000.221215,-00000.017231,-00000.005120
0000000002483,00002.695668,00002.808291,00002.390541,00002.965972,00003.093408,00002.933656,00002.832433,00003.380594,00002.679115,00002.909167,-00003.731288,00000.090261,-00000.405911,00000.218940,-00000.017106,-00000.005846
0000000002484,00002.695553,00002.808426,00002.389919,00002.965627,00003.093075,00002.933990,00002.832243,00003.381173,00002.681606,00002.908039,-00003.719972,00000.087406,-00000.411550,00000.216255,-00000.017934,-00000.006173
0000000002485,00002.695346,00002.808273,00002.389153,00002.964637,00003.092714,00002.933499,00002.832090,00003.381457,00002.683068,00002.906846,-00003.712654,00000.084821,-00000.414845,00000.214682,-00000.018916,-00000.004977
0000000002486,00002.694160,00002.808751,00002.388624,00002.962892,00003.092431,00002.932695,00002.832654,00003.381949,00002.684463,00002.904435,-00003.707374,00000.082753,-00000.416744,00000.213847,-00000.019258,-00000.003078
0000000002487,00002.693620,00002.808620,00002.387972,00002.962775,00003.092123,00002.932639,00002.832524,00003.382553,00002.686070,00002.902331,-00003.701869,00000.080915,-00000.418460,00000.212508,-00000.020457,-00000.001697
0000000002488,00002.692973,00002.808664,00002.386796,00002.962015,00003.091519,00002.932317,00002.832278,00003.382610,00002.687258,00002.900278,-00003.693746,00000.079880,-00000.421165,00000.209983,-00000.020748,-00000.001169
0000000002489,00002.692151,00002.808553,00002.386604,00002.962278,00003.091621,00002.931907,00002.832530,00003.382399,00002.688989,00002.898487,-00003.684344,00000.080492,-00000.424078,00000.206666,-00000.019954,-00000.001445
0000000002490,00002.691600,00002.808228,00002.385965,00002.962357,00003.091469,00002.931996,00002.832684,00003.382810,00002.690726,00002.897828,-00003.675252,00000.082514,-00000.426380,00000.203428,-00000.018751,-00000.002084
0000000002491,00002.691263,00002.808496,00002.385439,00002.962581,00003.091555,00002.932010,00002.833261,00003.382630,00002.692562,00002.897029,-00003.669425,00000.084849,-00000.427771,00000.200605,-00000.017350,-00000.003044
0000000002492,00002.691520,00002.808219,00002.385258,00002.962648,00003.091064,00002.932085,00002.833029,00003.383342,00002.693315,00002.896468,-00003.665676,00000.087295,-00000.428643,00000.197849,-00000.015963,-00000.004313
0000000002493,00002.691233,00002.808084,00002.384810,00002.962113,00003.090774,00002.931734,00002.833158,00003.383552,00002.694516,00002.895425,-00003.660715,00000.089646,-00000.430553,00000.194719,-00000.015495,-00000.004768
0000000002494,00002.691452,00002.807486,00002.384294,00002.961807,00003.090356,00002.931436,00002.832960,00003.384159,00002.695157,00002.894585,-00003.652444,00000.091003,-00000.433472,00000.191284,-00000.016491,-00000.004760
0000000002495,00002.691933,00002.807371,00002.383912,00002.961715,00003.090109,00002.931137,00002.832707,00003.384700,00002.695816,00002.894059,-00003.644956,00000.091553,-00000.436549,00000.188258,-00000.017908,-00000.004422
0000000002496,00002.692119,00002.807225,00002.383835,00002.961817,00003.090116,00002.930883,00002.832902,00003.385217,00002.696361,00002.894070,-00003.638641,00000.093071,-00000.438671,00000.186059,-00000.018755,-00000.003327
0000000002497,00002.691803,00002.807490,00002.382785,00002.961738,00003.089906,00002.930266,00002.833049,00003.385315,00002.697285,00002.893260,-00003.630452,00000.094627,-00000.440564,00000.183845,-00000.019235,-00000.001588
0000000002498,00002.691961,00002.807365,00002.382719,00002.961826,00003.089548,00002.930049,00002.832852,00003.385754,00002.698113,00002.891817,-00003.621811,00000.095557,-00000.443459,00000.180885,-00000.021046,00000.000433
0000000002499,00002.692418,00002.807228,00002.382913,00002.961758,00003.089733,00002.930249,00002.832977,00003.386563,00002.698899,00002.891490,-00003.611575,00000.096519,-00000.446160,00000.177912,-00000.023268,00000.001914
0000000002500,00002.693279,00002.807122,00002.382858,00002.961833,00003.089429,00002.930428,00002.832809,00003.387301,00002.699603,00002.891351,-00003.598051,00000.097673,-00000.448624,00000.175030,-00000.024446,00000.002908
0000000002501,00002.693668,00002.806642,00002.382660,00002.962138,00003.088860,00002.930236,00002.832553,00003.387989,00002.700636,00002.890710,-00003.582081,00000.098855,-00000.450561,00000.172499,-00000.024525,00000.003806
0000000002502,00002.694037,00002.806915,00002.382250,00002.962927,00003.088964,00002.930025,00002.832773,00003.388254,00002.702324,00002.890591,-00003.565852,00000.099475,-00000.452296,00000.169682,-00000.024802,00000.004290
0000000002503,00002.694368,00002.806869,00002.382082,00002.962825,00003.088842,00002.929861,00002.832918,00003.388478,00002.703566,00002.890408,-00003.548991,00000.100844,-00000.453218,00000.167164,-00000.024506,00000.004691
0000000002504,00002.695046,00002.806376,00002.382821,00002.963133,00003.088931,00002.929682,00002.832743,00003.389066,00002.704640,00002.890670,-00003.532273,00000.102097,-00000.454696,00000.164404,-00000.023653,00000.005828
0000000002505,00002.695690,00002.806337,00002.382678,00002.963409,00003.089190,00002.929542,00002.832866,00003.389256,00002.706059,00002.890877,-00003.514655,00000.102900,-00000.456932,00000.160810,-00000.024852,00000.007621
0000000002506,00002.696630,00002.805917,00002.383307,00002.964035,00003.089265,00002.930115,00002.833079,00003.390119,00002.708062,00002.891100,-00003.493529,00000.103966,-00000.458915,00000.157371,-00000.026304,00000.009678
0000000002507,00002.696816,00002.805884,00002.383548,00002.964995,00003.089123,00002.929997,00002.833184,00003.390281,00002.710722,00002.890913,-00003.469824,00000.105375,-00000.460457,00000.154674,-00000.026236,00000.010479
0000000002508,00002.697616,00002.805526,00002.384083,00002.966616,00003.088825,00002.930484,00002.833003,00003.391016,00002.713153,00002.891466,-00003.443859,00000.106284,-00000.462145,00000.151384,-00000.025657,00000.010779
0000000002509,00002.698499,00002.805135,00002.384651,00002.968884,00003.088341,00002.931472,00002.833092,00003.391517,00002.716505,00002.891670,-00003.416059,00000.107483,-00000.463820,00000.148000,-00000.025600,00000.010372
0000000002510,00002.699180,00002.804831,00002.385470,00002.971352,00003.088450,00002.931887,00002.832938,00003.391780,00002.719663,00002.892140,-00003.384885,00000.108982,-00000.465257,00000.145199,-00000.025833,00000.009539
0000000002511,00002.699933,00002.804498,00002.386316,00002.974009,00003.087675,00002.932727,00002.832651,00003.392569,00002.722880,00002.892314,-00003.351424,00000.110003,-00000.467046,00000.142318,-00000.026872,00000.008467
0000000002512,00002.700512,00002.804239,00002.387013,00002.976473,00003.087405,00002.933081,00002.832883,00003.392793,00002.726293,00002.892714,-00003.315453,00000.110553,-00000.468995,00000.139208,-00000.028522,00000.007395
0000000002513,00002.701516,00002.803955,00002.387734,00002.978735,00003.086745,00002.934159,00002.832639,00003.393465,00002.729395,00002.893225,-00003.277535,00000.110697,-00000.471606,00000.136030,-00000.031221,00000.006482
0000000002514,00002.702009,00002.803735,00002.387964,00002.980833,00003.085789,00002.934823,00002.832473,00003.393655,00002.732664,00002.893203,-00003.240020,00000.110439,-00000.473990,00000.132657,-00000.034076,00000.005207
0000000002515,00002.702863,00002.803131,00002.388215,00002.982758,00003.084503,00002.935741,00002.832265,00003.393864,00002.735304,00002.893275,-00003.203387,00000.109836,-00000.476939,00000.129225,-00000.037099,00000.004430
0000000002516,00002.703646,00002.802943,00002.388774,00002.984907,00003.083689,00002.937031,00002.832487,00003.394389,00002.738087,00002.893256,-00003.170725,00000.109254,-00000.479695,00000.125266,-00000.040618,00000.003707
0000000002517,00002.704373,00002.802066,00002.388987,00002.985820,00003.082956,00002.937450,00002.831947,00003.394930,00002.740334,00002.893680,-00003.141353,00000.109104,-00000.482205,00000.121619,-00000.043555,00000.003046
0000000002518,00002.705765,00002.801543,00002.388738,00002.987286,00003.082264,00002.938186,00002.831773,00003.395377,00002.742703,00002.893664,-00003.113910,00000.109697,-00000.484551,00000.118248,-00000.046188,00000.001342
0000000002519,00002.707110,00002.801522,00002.388919,00002.989515,00003.081640,00002.938905,00002.831676,00003.395837,00002.744979,00002.893662,-00003.084553,00000.110294,-00000.487050,00000.115144,-00000.047962,-00000.001035
0000000002520,00002.708658,00002.801440,00002.389432,00002.991489,00003.081050,00002.939169,00002.831528,00003.395855,00002.747359,00002.893649,-00003.052484,00000.110799,-00000.489773,00000.112274,-00000.048027,-00000.004300
0000000002521,00002.710528,00002.801059,00002.389950,00002.993024,00003.080519,00002.939781,00002.831446,00003.396610,00002.749659,00002.894010,-00003.019873,00000.111307,-00000.492263,00000.109631,-00000.047723,-00000.007412
0000000002522,00002.712934,00002.800627,00002.390749,00002.994341,00003.080380,00002.940368,00002.831320,00003.397350,00002.751685,00002.894724,-00002.987856,00000.111374,-00000.494581,00000.107188,-00000.047053,-00000.010191
0000000002523,00002.714889,00002.800303,00002.391552,00002.995285,00003.080291,00002.940527,00002.831250,00003.397630,00002.753643,00002.895031,-00002.959006,00000.111082,-00000.496339,00000.104938,-00000.046794,-00000.012477
0000000002524,00002.716575,00002.799571,00002.391870,00002.996043,00003.079809,00002.941027,00002.830780,00003.397898,00002.755005,00002.895277,-00002.936104,00000.110776,-00000.497224,00000.103584,-00000.046949,-00000.013392
0000000002525,00002.717513,00002.799296,00002.391828,00002.996484,00003.079008,00002.941161,00002.830720,00003.397410,00002.756672,00002.894813,-00002.917711,00000.110889,-00000.497994,00000.103483,-00000.047092,-00000.012798
0000000002526,00002.718585,00002.799036,00002.392099,00002.997130,00003.078961,00002.941587,00002.830683,00003.398001,00002.757831,00002.895021,-00002.899666,00000.111355,-00000.499473,00000.104144,-00000.046861,-00000.011763
0000000002527,00002.719747,00002.799164,00002.392426,00002.998231,00003.078641,00002.942065,00002.830632,00003.398312,00002.759613,00002.894989,-00002.877478,00000.111089,-00000.502306,00000.104421,-00000.045894,-00000.011621
0000000002528,00002.720660,00002.798943,00002.393019,00002.999143,00003.078238,00002.942427,00002.830600,00003.398452,00002.760963,00002.894804,-00002.850869,00000.110396,-00000.506104,00000.104984,-00000.043883,-00000.012191
0000000002529,00002.722012,00002.798689,00002.394386,00002.999717,00003.077966,00002.942471,00002.830194,00003.399079,00002.762117,00002.895140,-00002.822911,00000.109807,-00000.509241,00000.105945,-00000.041246,-00000.013884
0000000002530,00002.724302,00002.797922,00002.396055,00003.000983,00003.077029,00002.942454,00002.829821,00003.400095,00002.764249,00002.895630,-00002.772830,00000.108353,-00000.511880,00000.110507,-00000.036927,-00000.017987
0000000002531,00002.724910,00002.797399,00002.396794,00003.001645,00003.076428,00002.943133,00002.829798,00003.400505,00002.765590,00002.895805,-00002.753052,00000.107489,-00000.512672,00000.112876,-00000.036666,-00000.018909
0000000002532,00002.725318,00002.796824,00002.397016,00003.002261,00003.075357,00002.942292,00002.829484,00003.399858,00002.767205,00002.895109,-00002.717712,00000.106017,-00000.515527,00000.116045,-00000.038832,-00000.017911
0000000002533,00002.726391,00002.795971,00002.398294,00003.006051,00003.072994,00002.941939,00002.829217,00003.399670,00002.769668,00002.895241,-00002.677470,00000.105490,-00000.520496,00000.116929,-00000.038863,-00000.016699
0000000002534,00002.726884,00002.795205,00002.399242,00003.007588,00003.071916,00002.942008,00002.828958,00003.400145,00002.770221,00002.895509,-00002.656173,00000.105265,-00000.522160,00000.117000,-00000.037365,-00000.016512
0000000002535,00002.728088,00002.794593,00002.400552,00003.011311,00003.070790,00002.942422,00002.828769,00003.400277,00002.771510,00002.895582,-00002.616374,00000.106301,-00000.523604,00000.116291,-00000.034349,-00000.015145
0000000002536,00002.729475,00002.793347,00002.401666,00003.014118,00003.068743,00002.942412,00002.828608,00003.400389,00002.772970,00002.896007,-00002.576689,00000.106819,-00000.525558,00000.113147,-00000.035046,-00000.012168
0000000002537,00002.730405,00002.792704,00002.402393,00003.015342,00003.068066,00002.942361,00002.828677,00003.400508,00002.773564,00002.896204,-00002.554063,00000.106820,-00000.527146,00000.110737,-00000.036107,-00000.011254
0000000002538,00002.732899,00002.791739,00002.403596,00003.019001,00003.066424,00002.942723,00002.828167,00003.401674,00002.775445,00002.896899,-00002.504052,00000.107624,-00000.530025,00000.106243,-00000.035091,-00000.009581
0000000002539,00002.733676,00002.791745,00002.404041,00003.021336,00003.065517,00002.942760,00002.828408,00003.401600,00002.776669,00002.897040,-00002.479861,00000.109142,-00000.530963,00000.104163,-00000.034276,-00000.008818
0000000002540,00002.736771,00002.790922,00002.406088,00003.024104,00003.063892,00002.943425,00002.827938,00003.402241,00002.778088,00002.897248,-00002.430727,00000.112141,-00000.532911,00000.100284,-00000.032807,-00000.006418
0000000002541,00002.740132,00002.789859,00002.409281,00003.032627,00003.062145,00002.943992,00002.827538,00003.403150,00002.780384,00002.898514,-00002.374749,00000.114331,-00000.536384,00000.095167,-00000.033008,-00000.006552
0000000002542,00002.742993,00002.788591,00002.412000,00003.041697,00003.059933,00002.944474,00002.827197,00003.404286,00002.783065,00002.899228,-00002.311133,00000.118009,-00000.539341,00000.090811,-00000.032816,-00000.009206
0000000002543,00002.743670,00002.788358,00002.413478,00003.045779,00003.058741,00002.944642,00002.827367,00003.404805,00002.785181,00002.899546,-00002.279550,00000.119779,-00000.540616,00000.089400,-00000.032547,-00000.010744
0000000002544,00002.744704,00002.787874,00002.413952,00003.050143,00003.057686,00002.944885,00002.827270,00003.404890,00002.786435,00002.899474,-00002.250083,00000.121503,-00000.541858,00000.087828,-00000.031927,-00000.011828
0000000002545,00002.746159,00002.786176,00002.416339,00003.056609,00003.055774,00002.944871,00002.826969,00003.405042,00002.788216,00002.899320,-00002.205730,00000.125566,-00000.544726,00000.084564,-00000.031896,-00000.011157
0000000002546,00002.746310,00002.785093,00002.418371,00003.062112,00003.054509,00002.944860,00002.827076,00003.405171,00002.789369,00002.898827,-00002.176679,00000.129750,-00000.547167,00000.084324,-00000.033320,-00000.011312
0000000002547,00002.746439,00002.783808,00002.420101,00003.066435,00003.054157,00002.945213,00002.827167,00003.405644,00002.790713,00002.899495,-00002.154125,00000.132224,-00000.549609,00000.085934,-00000.033445,-00000.013984
0000000002548,00002.746169,00002.782836,00002.420514,00003.067537,00003.053794,00002.945024,00002.826986,00003.405732,00002.790697,00002.899477,-00002.147518,00000.134011,-00000.550085,00000.087186,-00000.033104,-00000.015911
0000000002549,00002.745955,00002.781886,00002.421200,00003.068876,00003.053549,00002.945353,00002.826365,00003.405759,00002.790393,00002.899323,-00002.152156,00000.138028,-00000.550642,00000.089822,-00000.032535,-00000.016447
0000000002550,00002.745774,00002.781804,00002.421421,00003.070016,00003.053703,00002.945995,00002.825836,00003.405782,00002.789408,00002.899554,-00002.170979,00000.141448,-00000.551478,00000.093154,-00000.032413,-00000.012550
0000000002551,00002.745894,00002.782124,00002.422034,00003.071032,00003.054112,00002.946451,00002.825397,00003.405754,00002.789198,00002.899045,-00002.183722,00000.142630,-00000.551904,00000.095009,-00000.032211,-00000.010440
0000000002552,00002.745359,00002.782369,00002.421405,00003.071126,00003.055271,00002.946930,00002.825012,00003.405052,00002.788028,00002.898592,-00002.224698,00000.145003,-00000.549288,00000.100109,-00000.031049,-00000.008162
0000000002553,00002.745629,00002.782578,00002.420145,00003.069029,00003.057708,00002.947701,00002.824321,00003.404817,00002.785944,00002.898932,-00002.286427,00000.147022,-00000.545609,00000.106265,-00000.030060,-00000.010214
0000000002554,00002.745376,00002.782866,00002.419065,00003.068378,00003.058242,00002.948077,00002.824004,00003.404951,00002.785180,00002.898502,-00002.316392,00000.147386,-00000.544881,00000.109726,-00000.030385,-00000.012071
0000000002555,00002.743829,00002.784089,00002.417427,00003.067416,00003.059875,00002.948677,00002.823463,00003.404368,00002.783882,00002.897767,-00002.382264,00000.147963,-00000.541857,00000.118805,-00000.030220,-00000.013541
0000000002556,00002.742513,00002.784768,00002.416395,00003.064419,00003.062353,00002.948825,00002.823366,00003.403872,00002.781689,00002.897504,-00002.452852,00000.149543,-00000.538558,00000.128348,-00000.029355,-00000.010077
0000000002557,00002.740304,00002.785345,00002.414791,00003.060780,00003.064101,00002.948589,00002.823283,00003.403812,00002.779096,00002.896918,-00002.528906,00000.151250,-00000.536475,00000.137924,-00000.028255,-00000.005676
0000000002558,00002.739313,00002.786187,00002.414401,00003.058442,00003.065230,00002.948453,00002.823479,00003.403915,00002.778225,00002.897008,-00002.565845,00000.152342,-00000.535354,00000.142720,-00000.026855,-00000.004052
0000000002559,00002.738423,00002.786925,00002.413788,00003.056594,00003.066314,00002.948388,00002.823575,00003.403761,00002.777615,00002.896781,-00002.598005,00000.153792,-00000.534339,00000.147526,-00000.025142,-00000.003018
0000000002560,00002.736459,00002.788270,00002.411846,00003.052304,00003.067109,00002.948216,00002.823098,00003.402993,00002.775628,00002.895214,-00002.660819,00000.157770,-00000.532520,00000.156426,-00000.022129,-00000.001118
0000000002561,00002.735741,00002.788880,00002.410583,00003.049884,00003.067619,00002.948118,00002.823294,00003.402759,00002.774271,00002.894661,-00002.693865,00000.159851,-00000.531708,00000.160937,-00000.020805,00000.000166
0000000002562,00002.733813,00002.789934,00002.408392,00003.044416,00003.068946,00002.947261,00002.823584,00003.402139,00002.771330,00002.894135,-00002.752583,00000.162928,-00000.533908,00000.167117,-00000.019888,00000.001230
0000000002563,00002.732535,00002.791557,00002.407252,00003.040123,00003.069713,00002.946895,00002.823469,00003.401612,00002.768826,00002.893324,-00002.806561,00000.163007,-00000.538321,00000.174556,-00000.018019,00000.002136
0000000002564,00002.731844,00002.791528,00002.406753,00003.037137,00003.070051,00002.946960,00002.823558,00003.401987,00002.767478,00002.893337,-00002.832456,00000.162881,-00000.540121,00000.178438,-00000.016974,00000.002694
0000000002565,00002.729770,00002.792552,00002.405494,00003.032113,00003.070654,00002.946275,00002.823810,00003.401119,00002.762645,00002.892645,-00002.882538,00000.164782,-00000.542885,00000.187458,-00000.014087,00000.004833
0000000002566,00002.728005,00002.793423,00002.404423,00003.028198,00003.070441,00002.946055,00002.823298,00003.401106,00002.758168,00002.891693,-00002.924810,00000.165311,-00000.548140,00000.193685,-00000.011992,00000.007379
0000000002567,00002.726828,00002.793656,00002.404136,00003.025674,00003.070723,00002.945728,00002.823116,00003.401081,00002.756240,00002.891808,-00002.944639,00000.164527,-00000.549905,00000.196004,-00000.011071,00000.007589
0000000002568,00002.725137,00002.794000,00002.402541,00003.020904,00003.071588,00002.944864,00002.823433,00003.400710,00002.751627,00002.890981,-00002.982030,00000.162918,-00000.552302,00000.200961,-00000.011602,00000.007186
0000000002569,00002.724605,00002.794124,00002.402062,00003.018617,00003.072229,00002.944728,00002.823163,00003.400777,00002.749352,00002.891226,-00002.998564,00000.162062,-00000.553372,00000.202829,-00000.011848,00000.007363
0000000002570,00002.723970,00002.795487,00002.401501,00003.013808,00003.073596,00002.944738,00002.823473,00003.400452,00002.745037,00002.890848,-00003.033015,00000.160094,-00000.555254,00000.203505,-00000.012263,00000.009896
0000000002571,00002.723430,00002.795559,00002.400298,00003.008625,00003.073671,00002.944384,00002.823374,00003.400538,00002.741002,00002.890889,-00003.063795,00000.157693,-00000.557218,00000.201542,-00000.013342,00000.013503
0000000002572,00002.723399,00002.795998,00002.399622,00003.006966,00003.073286,00002.944212,00002.823139,00003.400525,00002.739278,00002.890309,-00003.078111,00000.156802,-00000.558230,00000.200650,-00000.013799,00000.014379
0000000002573,00002.722943,00002.796357,00002.397610,00003.003163,00003.073045,00002.943936,00002.822727,00003.400237,00002.736099,00002.889704,-00003.098557,00000.155616,-00000.560115,00000.199837,-00000.013561,00000.014781
0000000002574,00002.723281,00002.796662,00002.396623,00003.001014,00003.073928,00002.943701,00002.822739,00003.400718,00002.734481,00002.889915,-00003.111972,00000.155332,-00000.560631,00000.199508,-00000.012270,00000.014759
0000000002575,00002.723643,00002.796605,00002.396153,00002.999445,00003.073937,00002.943924,00002.822948,00003.400827,00002.733132,00002.889880,-00003.121905,00000.155739,-00000.559559,00000.199205,-00000.012087,00000.015090
0000000002576,00002.723151,00002.796873,00002.395019,00002.996397,00003.075050,00002.944054,00002.823290,00003.400857,00002.731230,00002.889702,-00003.142370,00000.156525,-00000.559432,00000.198244,-00000.015368,00000.017199
0000000002577,00002.723089,00002.796834,00002.394287,00002.995250,00003.074957,00002.944002,00002.823429,00003.400388,00002.729916,00002.889158,-00003.148454,00000.157262,-00000.559900,00000.198733,-00000.016442,00000.018192
0000000002578,00002.723042,00002.797069,00002.393431,00002.994640,00003.075193,00002.944120,00002.823700,00003.400121,00002.728854,00002.889087,-00003.154449,00000.158910,-00000.560448,00000.199656,-00000.015086,00000.018027
0000000002579,00002.722277,00002.797631,00002.392339,00002.992670,00003.075756,00002.943495,00002.823930,00003.399531,00002.727951,00002.889027,-00003.163544,00000.161764,-00000.560189,00000.198991,-00000.014656,00000.016434
0000000002580,00002.722336,00002.797462,00002.392270,00002.990705,00003.076347,00002.943349,00002.824040,00003.399727,00002.727103,00002.889048,-00003.167257,00000.163221,-00000.560305,00000.197961,-00000.015414,00000.016653
0000000002581,00002.722765,00002.797240,00002.392077,00002.990046,00003.077102,00002.943202,00002.824219,00003.399921,00002.726823,00002.888993,-00003.168279,00000.165434,-00000.560793,00000.196459,-00000.017838,00000.017804
0000000002582,00002.722724,00002.797174,00002.391962,00002.989673,00003.076953,00002.943544,00002.823930,00003.399944,00002.727306,00002.888569,-00003.165866,00000.166208,-00000.560761,00000.196344,-00000.018319,00000.018318
0000000002583,00002.723457,00002.796995,00002.391814,00002.989530,00003.077618,00002.944093,00002.823400,00003.400468,00002.726995,00002.888586,-00003.161290,00000.167976,-00000.560819,00000.196171,-00000.018860,00000.020310
0000000002584,00002.723719,00002.797205,00002.390963,00002.989046,00003.077821,00002.943472,00002.823312,00003.400189,00002.726005,00002.887874,-00003.158121,00000.169845,-00000.561956,00000.195661,-00000.020046,00000.023095
0000000002585,00002.724013,00002.797479,00002.390564,00002.989634,00003.078185,00002.943350,00002.823469,00003.399830,00002.726524,00002.887522,-00003.151416,00000.171058,-00000.564139,00000.193793,-00000.021176,00000.024314
0000000002586,00002.724917,00002.797980,00002.389173,00002.991674,00003.078667,00002.943927,00002.824097,00003.398920,00002.729232,00002.887695,-00003.131938,00000.174645,-00000.570587,00000.190008,-00000.022381,00000.024689
0000000002587,00002.725528,00002.797846,00002.388950,00002.992003,00003.078812,00002.944199,00002.824207,00003.399132,00002.729872,00002.887425,-00003.125790,00000.175893,-00000.573621,00000.188504,-00000.022479,00000.024326
0000000002588,00002.725845,00002.797929,00002.388162,00002.990425,00003.079563,00002.943925,00002.824362,00003.399052,00002.729543,00002.885435,-00003.123909,00000.178399,-00000.577571,00000.185506,-00000.026755,00000.022886
0000000002589,00002.726840,00002.798001,00002.387491,00002.990896,00003.079477,00002.944055,00002.824131,00003.398983,00002.730713,00002.884829,-00003.119768,00000.179443,-00000.580570,00000.182591,-00000.030395,00000.023110
0000000002590,00002.727264,00002.798245,00002.387320,00002.991735,00003.079359,00002.943897,00002.824591,00003.399057,00002.732057,00002.884751,-00003.114773,00000.179508,-00000.582458,00000.181347,-00000.031076,00000.023588
