0000000001335,00002.484377,00002.200947,00002.205209,00003.024827,00002.883398,00002.899005,00002.734899,00004.222623,00002.480629,00002.777683,-00000.416424,-00000.107631,-00000.553723,-00000.021385,-00000.112692,-00000.206222
0000000001336,00002.484512,00002.200925,00002.205420,00003.024681,00002.883583,00002.898975,00002.734855,00004.222884,00002.480456,00002.777756,-00000.416296,-00000.107411,-00000.553332,-00000.021447,-00000.112463,-00000.206306
0000000001337,00002.484636,00002.200724,00002.205622,00003.024717,00002.883821,00002.898740,00002.735092,00004.223258,00002.480357,00002.777863,-00000.416358,-00000.107408,-00000.553195,-00000.021471,-00000.112260,-00000.206576
0000000001338,00002.484207,00002.200706,00002.205439,00003.024412,00002.883797,00002.898351,00002.735054,00004.223117,00002.480210,00002.777743,-00000.416430,-00000.107221,-00000.553043,-00000.021342,-00000.111884,-00000.207010
0000000001339,00002.483950,00002.200534,00002.205430,00003.024261,00002.883818,00002.897969,00002.735075,00004.222891,00002.480307,00002.777653,-00000.416483,-00000.107218,-00000.552926,-00000.021362,-00000.111893,-00000.207421
0000000001340,00002.483947,00002.200700,00002.205273,00003.024363,00002.883254,00002.898183,00002.734861,00004.222590,00002.480363,00002.777370,-00000.416545,-00000.107240,-00000.552797,-00000.021252,-00000.111935,-00000.207790
0000000001341,00002.483547,00002.200917,00002.205084,00003.024235,00002.883090,00002.898039,00002.734879,00004.222035,00002.480446,00002.776930,-00000.416771,-00000.107237,-00000.552697,-00000.021269,-00000.111943,-00000.208140
0000000001342,00002.483544,00002.200695,00002.205133,00003.024141,00002.883335,00002.898040,00002.735059,00004.222504,00002.480675,00002.777233,-00000.416823,-00000.107438,-00000.552587,-00000.021175,-00000.111979,-00000.208455
0000000001343,00002.483386,00002.200880,00002.204790,00003.024394,00002.883014,00002.898099,00002.734893,00004.222213,00002.480745,00002.777041,-00000.416835,-00000.107435,-00000.552502,-00000.021190,-00000.111985,-00000.208934
0000000001344,00002.483383,00002.201054,00002.204469,00003.024496,00002.882679,00002.898099,00002.734503,00004.221887,00002.480759,00002.776754,-00000.416879,-00000.107606,-00000.552409,-00000.021292,-00000.112016,-00000.209202
0000000001345,00002.483429,00002.200848,00002.204540,00003.024168,00002.882769,00002.897968,00002.734724,00004.222002,00002.480637,00002.776953,-00000.416889,-00000.107785,-00000.552336,-00000.021304,-00000.112022,-00000.209610
0000000001346,00002.483427,00002.200452,00002.204629,00003.024073,00002.882483,00002.897969,00002.734392,00004.222087,00002.480286,00002.776891,-00000.417108,-00000.108112,-00000.552438,-00000.021209,-00000.112048,-00000.210020
0000000001347,00002.483285,00002.200640,00002.204690,00003.023974,00002.882559,00002.897857,00002.734580,00004.222003,00002.480546,00002.777060,-00000.417117,-00000.108265,-00000.552376,-00000.021220,-00000.112234,-00000.210367
0000000001348,00002.483284,00002.200484,00002.204765,00003.023893,00002.882679,00002.897857,00002.734479,00004.222257,00002.480247,00002.777188,-00000.417122,-00000.108543,-00000.552282,-00000.021321,-00000.112256,-00000.210715
0000000001349,00002.483344,00002.200644,00002.204454,00003.024173,00002.882381,00002.897944,00002.734276,00004.221823,00002.480286,00002.776969,-00000.417129,-00000.108673,-00000.552229,-00000.021148,-00000.112233,-00000.211011
0000000001350,00002.483524,00002.200511,00002.204519,00003.024104,00002.882483,00002.897944,00002.734190,00004.221858,00002.480213,00002.777079,-00000.417134,-00000.108728,-00000.552149,-00000.021053,-00000.112252,-00000.211308
0000000001351,00002.483757,00002.200285,00002.204436,00003.024160,00002.882048,00002.898018,00002.733836,00004.221670,00002.480065,00002.776893,-00000.417139,-00000.109020,-00000.552104,-00000.020906,-00000.112233,-00000.211560
0000000001352,00002.483910,00002.200353,00002.204309,00003.024464,00002.881591,00002.898199,00002.733763,00004.221518,00002.480366,00002.776804,-00000.417143,-00000.109249,-00000.552035,-00000.021006,-00000.112430,-00000.211812
0000000001353,00002.483745,00002.200523,00002.204057,00003.024693,00002.881583,00002.898262,00002.733824,00004.221177,00002.480421,00002.776827,-00000.417330,-00000.109316,-00000.551997,-00000.021062,-00000.112413,-00000.212026
0000000001354,00002.483513,00002.200763,00002.203768,00003.024952,00002.881557,00002.897872,00002.733943,00004.220685,00002.480496,00002.776752,-00000.417515,-00000.109511,-00000.551939,-00000.021147,-00000.112400,-00000.212241
0000000001355,00002.483736,00002.200544,00002.203915,00003.025329,00002.881369,00002.898107,00002.733814,00004.220938,00002.480362,00002.776771,-00000.417673,-00000.109749,-00000.551907,-00000.021014,-00000.112386,-00000.212424
0000000001356,00002.483719,00002.200749,00002.204032,00003.025549,00002.881528,00002.898138,00002.734097,00004.221063,00002.480607,00002.776889,-00000.417831,-00000.110096,-00000.551857,-00000.020905,-00000.112193,-00000.212788
0000000001357,00002.483727,00002.200744,00002.204158,00003.025326,00002.881731,00002.897975,00002.734168,00004.221098,00002.480492,00002.776905,-00000.417966,-00000.110481,-00000.552011,-00000.020973,-00000.112181,-00000.212944
0000000001358,00002.483713,00002.200918,00002.204257,00003.025332,00002.882047,00002.897639,00002.734227,00004.220660,00002.480338,00002.776642,-00000.418100,-00000.110595,-00000.551968,-00000.021062,-00000.112199,-00000.213072
0000000001359,00002.483720,00002.201096,00002.204183,00003.025505,00002.882220,00002.897681,00002.734288,00004.220508,00002.480604,00002.776475,-00000.418215,-00000.110922,-00000.551918,-00000.020938,-00000.112007,-00000.213205
0000000001360,00002.483709,00002.201062,00002.203905,00003.025691,00002.882127,00002.897395,00002.734339,00004.219954,00002.480472,00002.776251,-00000.418329,-00000.111019,-00000.551882,-00000.021014,-00000.111840,-00000.213314
0000000001361,00002.483896,00002.201213,00002.203842,00003.026020,00002.882455,00002.897250,00002.734753,00004.220188,00002.480880,00002.776653,-00000.418245,-00000.111298,-00000.551839,-00000.021090,-00000.111677,-00000.213246
0000000001362,00002.484430,00002.201003,00002.203968,00003.026360,00002.882194,00002.897551,00002.734433,00004.220260,00002.480768,00002.776644,-00000.418161,-00000.111381,-00000.551808,-00000.020973,-00000.111535,-00000.213158
0000000001363,00002.485134,00002.200951,00002.204095,00003.026277,00002.882474,00002.897608,00002.734242,00004.220459,00002.480571,00002.776986,-00000.418090,-00000.111436,-00000.551772,-00000.020856,-00000.111397,-00000.213099
0000000001364,00002.485588,00002.200953,00002.204021,00003.026385,00002.882796,00002.897501,00002.734333,00004.220702,00002.480475,00002.777341,-00000.418199,-00000.111507,-00000.551746,-00000.020756,-00000.111094,-00000.213024
0000000001365,00002.486187,00002.200727,00002.204130,00003.026495,00002.883034,00002.897551,00002.734170,00004.220871,00002.480307,00002.777451,-00000.418501,-00000.111736,-00000.551714,-00000.020838,-00000.110976,-00000.213156
0000000001366,00002.486937,00002.200911,00002.204248,00003.026588,00002.883308,00002.897641,00002.734247,00004.220897,00002.480408,00002.777390,-00000.418595,-00000.111977,-00000.551511,-00000.020935,-00000.110719,-00000.213273
0000000001367,00002.487991,00002.200900,00002.204703,00003.027044,00002.883330,00002.898046,00002.734290,00004.221222,00002.480265,00002.777665,-00000.418852,-00000.112172,-00000.551303,-00000.020824,-00000.110437,-00000.213566
0000000001368,00002.488811,00002.200875,00002.204804,00003.027304,00002.883745,00002.898123,00002.734355,00004.221426,00002.480169,00002.777795,-00000.419113,-00000.112377,-00000.551311,-00000.020724,-00000.110218,-00000.213848
0000000001369,00002.489345,00002.200684,00002.204829,00003.027330,00002.883944,00002.898104,00002.734392,00004.221703,00002.480047,00002.778029,-00000.419332,-00000.112543,-00000.551497,-00000.020811,-00000.109978,-00000.214279
0000000001370,00002.489681,00002.200481,00002.204915,00003.027552,00002.884116,00002.898351,00002.734810,00004.222057,00002.480328,00002.778321,-00000.419554,-00000.112718,-00000.551504,-00000.020908,-00000.109791,-00000.214700
0000000001371,00002.490317,00002.200500,00002.205117,00003.027755,00002.884104,00002.898699,00002.734660,00004.222293,00002.480224,00002.778338,-00000.419740,-00000.113041,-00000.551480,-00000.020800,-00000.109768,-00000.215067
0000000001372,00002.490602,00002.200690,00002.205009,00003.028125,00002.883888,00002.898909,00002.734654,00004.222050,00002.480464,00002.778224,-00000.419929,-00000.113371,-00000.551486,-00000.020882,-00000.109791,-00000.215426
0000000001373,00002.490418,00002.200706,00002.204637,00003.028117,00002.883696,00002.898660,00002.734707,00004.221526,00002.480738,00002.777877,-00000.420088,-00000.113464,-00000.551466,-00000.021154,-00000.109772,-00000.215738
0000000001374,00002.490480,00002.200687,00002.204544,00003.028069,00002.883693,00002.898295,00002.734883,00004.221319,00002.480942,00002.777779,-00000.420249,-00000.113745,-00000.551653,-00000.021224,-00000.109791,-00000.216043
0000000001375,00002.490686,00002.200882,00002.204409,00003.028606,00002.883531,00002.898627,00002.735110,00004.221235,00002.481357,00002.777665,-00000.420384,-00000.114006,-00000.551817,-00000.021273,-00000.109774,-00000.216309
0000000001376,00002.490920,00002.201228,00002.204331,00003.028928,00002.883710,00002.898498,00002.735260,00004.221241,00002.481531,00002.777582,-00000.420703,-00000.114064,-00000.551976,-00000.021333,-00000.109791,-00000.216569
0000000001377,00002.491277,00002.201213,00002.204216,00003.029204,00002.883390,00002.898600,00002.735271,00004.220988,00002.481521,00002.777303,-00000.420999,-00000.114286,-00000.551753,-00000.021375,-00000.109595,-00000.216795
0000000001378,00002.491476,00002.201145,00002.204330,00003.029115,00002.883542,00002.898489,00002.735399,00004.220993,00002.481669,00002.777414,-00000.421089,-00000.114335,-00000.551707,-00000.021426,-00000.109428,-00000.217016
0000000001379,00002.491599,00002.201313,00002.204414,00003.029532,00002.883632,00002.898757,00002.735590,00004.221140,00002.482024,00002.777358,-00000.421160,-00000.114524,-00000.551699,-00000.021280,-00000.109080,-00000.217209
0000000001380,00002.491949,00002.201437,00002.204330,00003.030000,00002.883580,00002.899026,00002.735517,00004.220963,00002.482149,00002.777089,-00000.421236,-00000.114566,-00000.551841,-00000.021324,-00000.108937,-00000.217216
0000000001381,00002.492235,00002.201580,00002.204219,00003.030173,00002.883476,00002.898891,00002.735499,00004.220726,00002.482270,00002.776860,-00000.421296,-00000.114727,-00000.551471,-00000.021200,-00000.108822,-00000.217199
0000000001382,00002.492352,00002.201504,00002.204329,00003.030028,00002.883613,00002.898758,00002.735618,00004.220756,00002.482196,00002.776995,-00000.421361,-00000.114763,-00000.551410,-00000.021237,-00000.108520,-00000.217205
0000000001383,00002.492233,00002.201626,00002.204054,00003.029994,00002.883706,00002.898462,00002.735602,00004.220554,00002.482117,00002.776800,-00000.421594,-00000.114900,-00000.551640,-00000.021312,-00000.108603,-00000.217371
0000000001384,00002.492151,00002.201561,00002.203785,00003.030052,00002.883460,00002.898348,00002.735523,00004.220217,00002.482235,00002.776551,-00000.421831,-00000.115112,-00000.551588,-00000.021344,-00000.108709,-00000.217739
0000000001385,00002.492594,00002.201665,00002.203913,00003.030567,00002.883357,00002.898821,00002.735509,00004.220590,00002.482349,00002.776566,-00000.421848,-00000.115228,-00000.551602,-00000.021408,-00000.108961,-00000.218062
0000000001386,00002.492705,00002.201791,00002.203865,00003.030253,00002.883329,00002.898724,00002.735623,00004.220666,00002.482450,00002.776536,-00000.422049,-00000.115409,-00000.551740,-00000.021435,-00000.109232,-00000.218375
0000000001387,00002.492719,00002.201698,00002.203975,00003.029785,00002.883423,00002.898402,00002.735793,00004.220620,00002.482366,00002.776549,-00000.421882,-00000.115508,-00000.552114,-00000.021490,-00000.109629,-00000.218651
0000000001388,00002.492815,00002.201805,00002.204116,00003.029699,00002.883581,00002.898682,00002.736071,00004.221047,00002.482633,00002.776705,-00000.421872,-00000.115843,-00000.552231,-00000.021513,-00000.110041,-00000.219099
0000000001389,00002.492826,00002.201907,00002.204027,00003.029482,00002.883842,00002.898589,00002.736034,00004.221190,00002.482561,00002.776716,-00000.421912,-00000.115927,-00000.552188,-00000.021560,-00000.110378,-00000.219514
0000000001390,00002.493270,00002.201817,00002.204147,00003.029772,00002.883795,00002.898827,00002.735727,00004.221372,00002.482244,00002.776849,-00000.421903,-00000.116031,-00000.552106,-00000.021579,-00000.110910,-00000.219896
0000000001391,00002.493643,00002.201904,00002.204072,00003.029768,00002.883655,00002.898930,00002.735514,00004.221493,00002.482183,00002.776858,-00000.421936,-00000.116284,-00000.552250,-00000.021619,-00000.111560,-00000.220431
0000000001392,00002.493840,00002.202009,00002.203811,00003.030015,00002.883433,00002.898770,00002.735434,00004.221105,00002.482095,00002.776427,-00000.421929,-00000.116373,-00000.552362,-00000.021635,-00000.112195,-00000.220937
0000000001393,00002.493976,00002.201720,00002.203928,00003.029831,00002.883495,00002.898675,00002.735253,00004.221389,00002.482043,00002.776617,-00000.422139,-00000.116588,-00000.552484,-00000.021851,-00000.112930,-00000.221574
0000000001394,00002.494324,00002.201628,00002.204069,00003.029859,00002.883488,00002.898902,00002.735003,00004.221602,00002.481787,00002.776794,-00000.422133,-00000.116845,-00000.552761,-00000.022046,-00000.113832,-00000.222005
0000000001395,00002.494803,00002.201564,00002.204350,00003.030065,00002.883359,00002.899185,00002.734849,00004.221663,00002.481742,00002.776773,-00000.422130,-00000.117029,-00000.552865,-00000.022229,-00000.114821,-00000.222366
0000000001396,00002.495281,00002.201485,00002.204470,00003.030090,00002.883353,00002.899378,00002.734636,00004.222026,00002.481705,00002.776743,-00000.422306,-00000.117247,-00000.552919,-00000.022396,-00000.115589,-00000.222732
0000000001397,00002.495688,00002.201612,00002.204710,00003.030627,00002.883425,00002.899981,00002.734868,00004.222441,00002.482031,00002.776907,-00000.422485,-00000.117403,-00000.553371,-00000.022552,-00000.116431,-00000.223040
0000000001398,00002.495733,00002.201908,00002.204812,00003.030830,00002.883601,00002.899782,00002.734868,00004.222205,00002.482180,00002.776700,-00000.422454,-00000.117589,-00000.553598,-00000.022875,-00000.117266,-00000.223533
0000000001399,00002.495535,00002.202016,00002.204653,00003.030381,00002.883663,00002.899208,00002.734884,00004.221833,00002.482094,00002.776839,-00000.422425,-00000.117722,-00000.553802,-00000.023189,-00000.118164,-00000.223976
0000000001400,00002.495392,00002.202086,00002.204558,00003.030190,00002.883631,00002.898857,00002.734884,00004.221451,00002.482222,00002.776844,-00000.422398,-00000.117881,-00000.553995,-00000.023283,-00000.118876,-00000.224396
0000000001401,00002.495586,00002.201997,00002.204967,00003.030170,00002.884046,00002.898912,00002.734897,00004.221860,00002.482149,00002.776963,-00000.422374,-00000.117812,-00000.554168,-00000.023369,-00000.119277,-00000.224773
0000000001402,00002.495827,00002.202057,00002.205068,00003.030552,00002.883656,00002.899339,00002.734716,00004.221897,00002.482076,00002.776786,-00000.422169,-00000.117766,-00000.554151,-00000.023448,-00000.119883,-00000.224950
0000000001403,00002.496174,00002.201980,00002.205053,00003.030536,00002.883465,00002.899386,00002.734365,00004.221882,00002.482014,00002.776706,-00000.421967,-00000.117889,-00000.553936,-00000.023522,-00000.120406,-00000.225089
0000000001404,00002.496197,00002.202213,00002.204777,00003.030861,00002.883315,00002.899387,00002.734392,00004.221733,00002.482133,00002.776736,-00000.421975,-00000.117849,-00000.554103,-00000.023590,-00000.120921,-00000.225239
0000000001405,00002.496493,00002.202148,00002.204945,00003.030847,00002.883515,00002.899245,00002.734274,00004.221720,00002.482080,00002.776668,-00000.421984,-00000.117773,-00000.554101,-00000.023652,-00000.121367,-00000.225358
0000000001406,00002.497057,00002.202346,00002.205073,00003.031124,00002.883388,00002.899609,00002.734116,00004.221775,00002.482000,00002.776512,-00000.422172,-00000.117921,-00000.554243,-00000.023710,-00000.122168,-00000.225486
0000000001407,00002.497309,00002.202653,00002.205216,00003.031112,00002.883558,00002.899670,00002.734379,00004.221945,00002.482137,00002.776817,-00000.422361,-00000.118037,-00000.554242,-00000.023763,-00000.122547,-00000.225769
0000000001408,00002.496882,00002.202459,00002.204962,00003.030622,00002.883449,00002.899254,00002.734425,00004.221629,00002.482069,00002.777048,-00000.422521,-00000.118163,-00000.554181,-00000.023812,-00000.122504,-00000.225877
0000000001409,00002.496915,00002.202539,00002.204903,00003.030430,00002.883594,00002.898943,00002.734649,00004.221229,00002.482185,00002.777126,-00000.422682,-00000.118262,-00000.554180,-00000.023857,-00000.122283,-00000.226118
0000000001410,00002.496914,00002.202556,00002.204686,00003.030557,00002.883320,00002.899133,00002.734507,00004.220960,00002.482308,00002.776959,-00000.422818,-00000.118187,-00000.553947,-00000.023899,-00000.121883,-00000.226392
0000000001411,00002.496942,00002.202443,00002.204454,00003.030212,00002.883262,00002.898868,00002.734516,00004.220802,00002.482407,00002.777026,-00000.422955,-00000.118272,-00000.553946,-00000.023756,-00000.121695,-00000.226415
0000000001412,00002.496942,00002.202456,00002.204451,00003.030321,00002.883029,00002.899211,00002.734396,00004.220754,00002.482512,00002.776884,-00000.423071,-00000.118208,-00000.554111,-00000.023610,-00000.121536,-00000.226467
0000000001413,00002.496965,00002.202360,00002.204435,00003.030209,00002.882980,00002.899349,00002.734222,00004.220982,00002.482415,00002.777122,-00000.423187,-00000.118280,-00000.554110,-00000.023489,-00000.121194,-00000.226487
0000000001414,00002.496602,00002.202372,00002.204251,00003.029938,00002.882962,00002.899097,00002.734300,00004.220578,00002.482505,00002.777001,-00000.423468,-00000.118408,-00000.554250,-00000.023546,-00000.120878,-00000.226531
0000000001415,00002.496260,00002.202652,00002.204057,00003.030206,00002.882739,00002.899214,00002.734334,00004.220228,00002.482785,00002.776659,-00000.423748,-00000.118650,-00000.554430,-00000.023624,-00000.120587,-00000.226730
0000000001416,00002.496676,00002.202662,00002.204444,00003.030157,00002.882724,00002.899543,00002.734401,00004.220791,00002.482861,00002.776919,-00000.423987,-00000.118759,-00000.554368,-00000.023673,-00000.120136,-00000.226949
0000000001417,00002.496566,00002.202720,00002.204641,00003.030203,00002.883078,00002.899461,00002.734611,00004.221037,00002.482918,00002.777173,-00000.424226,-00000.118784,-00000.554341,-00000.023739,-00000.119707,-00000.227299
0000000001418,00002.496739,00002.202547,00002.204971,00003.029980,00002.883066,00002.899561,00002.734486,00004.221517,00002.482801,00002.777394,-00000.424429,-00000.118876,-00000.554288,-00000.023781,-00000.119323,-00000.227485
0000000001419,00002.496464,00002.202415,00002.204776,00003.030019,00002.882642,00002.899854,00002.734302,00004.221727,00002.482850,00002.777428,-00000.424632,-00000.118897,-00000.554445,-00000.023837,-00000.118776,-00000.227421
0000000001420,00002.496792,00002.202449,00002.205057,00003.030192,00002.882631,00002.900120,00002.734378,00004.221954,00002.482751,00002.777617,-00000.424623,-00000.118976,-00000.554401,-00000.023691,-00000.118268,-00000.227398
0000000001421,00002.496740,00002.202518,00002.204890,00003.030588,00002.882633,00002.900369,00002.734584,00004.221951,00002.483155,00002.777646,-00000.424615,-00000.118813,-00000.554353,-00000.023558,-00000.117803,-00000.227162
0000000001422,00002.496657,00002.202547,00002.204948,00003.030373,00002.882987,00002.900233,00002.734830,00004.222144,00002.483252,00002.777806,-00000.424608,-00000.118698,-00000.554315,-00000.023252,-00000.117189,-00000.227142
0000000001423,00002.496430,00002.202605,00002.204807,00003.029985,00002.882988,00002.899901,00002.735005,00004.221778,00002.483233,00002.777650,-00000.424782,-00000.118559,-00000.554275,-00000.023138,-00000.116793,-00000.227122
0000000001424,00002.495997,00002.202449,00002.204493,00003.029620,00002.883108,00002.899422,00002.735033,00004.221580,00002.483497,00002.777423,-00000.424776,-00000.118643,-00000.554061,-00000.023059,-00000.116451,-00000.227106
0000000001425,00002.495985,00002.202317,00002.204554,00003.029471,00002.883290,00002.899321,00002.735182,00004.221632,00002.483481,00002.777653,-00000.424743,-00000.118707,-00000.553846,-00000.022963,-00000.116295,-00000.227089
0000000001426,00002.495979,00002.202184,00002.204468,00003.029341,00002.883574,00002.899094,00002.735387,00004.221463,00002.483705,00002.777642,-00000.424919,-00000.118778,-00000.553845,-00000.022896,-00000.116005,-00000.227075
0000000001427,00002.495788,00002.202435,00002.204339,00003.029577,00002.883548,00002.898827,00002.735514,00004.221326,00002.484055,00002.777656,-00000.424891,-00000.118832,-00000.553843,-00000.022813,-00000.115872,-00000.227061
0000000001428,00002.495783,00002.202321,00002.204447,00003.029286,00002.883970,00002.898816,00002.735326,00004.221726,00002.483883,00002.777828,-00000.424860,-00000.118893,-00000.553842,-00000.022756,-00000.115625,-00000.227049
0000000001429,00002.496165,00002.202353,00002.204700,00003.029486,00002.883948,00002.899132,00002.735253,00004.221972,00002.483636,00002.777840,-00000.424836,-00000.118938,-00000.553659,-00000.022686,-00000.115512,-00000.227036
0000000001430,00002.496341,00002.202257,00002.204974,00003.029601,00002.884127,00002.899304,00002.735274,00004.222313,00002.483490,00002.778167,-00000.424809,-00000.118809,-00000.553477,-00000.022637,-00000.115301,-00000.227208
0000000001431,00002.496485,00002.202103,00002.205007,00003.029228,00002.884108,00002.899211,00002.735030,00004.222159,00002.483098,00002.778177,-00000.424789,-00000.118848,-00000.553321,-00000.022578,-00000.114842,-00000.227197
0000000001432,00002.496454,00002.201839,00002.205059,00003.028963,00002.884260,00002.899176,00002.734867,00004.222268,00002.482974,00002.778275,-00000.424585,-00000.118737,-00000.553166,-00000.022355,-00000.114844,-00000.227162
0000000001433,00002.496576,00002.201708,00002.205088,00003.028826,00002.884244,00002.899096,00002.734659,00004.222319,00002.482641,00002.778284,-00000.424386,-00000.118589,-00000.553033,-00000.022304,-00000.114816,-00000.227153
0000000001434,00002.496550,00002.202028,00002.205131,00003.028963,00002.884554,00002.899248,00002.735064,00004.222593,00002.482898,00002.778548,-00000.424393,-00000.118677,-00000.552902,-00000.022296,-00000.114818,-00000.227122
0000000001435,00002.496472,00002.201916,00002.205156,00003.029029,00002.884541,00002.899361,00002.735069,00004.222636,00002.482795,00002.778555,-00000.424406,-00000.118732,-00000.552789,-00000.022253,-00000.114976,-00000.227115
0000000001436,00002.496269,00002.202007,00002.205012,00003.028964,00002.884805,00002.899309,00002.735233,00004.222869,00002.483014,00002.778599,-00000.424412,-00000.118806,-00000.552676,-00000.022246,-00000.114978,-00000.227089
0000000001437,00002.496384,00002.201912,00002.205214,00003.029201,00002.884794,00002.899406,00002.735055,00004.223087,00002.482927,00002.778605,-00000.424423,-00000.119035,-00000.552762,-00000.022209,-00000.115293,-00000.227264
0000000001438,00002.496392,00002.201808,00002.205091,00003.029690,00002.884293,00002.899543,00002.734832,00004.222742,00002.482750,00002.778280,-00000.424428,-00000.119279,-00000.552847,-00000.022203,-00000.115657,-00000.227424
0000000001439,00002.496309,00002.201727,00002.204719,00003.030073,00002.883921,00002.899625,00002.734862,00004.222383,00002.482858,00002.778104,-00000.424437,-00000.119292,-00000.552920,-00000.022172,-00000.115926,-00000.227572
0000000001440,00002.496316,00002.201819,00002.204615,00003.030127,00002.884039,00002.899379,00002.735035,00004.222271,00002.482889,00002.778008,-00000.424442,-00000.119319,-00000.552993,-00000.022348,-00000.116417,-00000.227890
0000000001441,00002.496245,00002.202113,00002.204480,00003.030272,00002.884266,00002.899267,00002.735242,00004.221965,00002.483161,00002.777858,-00000.424449,-00000.119330,-00000.553055,-00000.022503,-00000.116827,-00000.228016
0000000001442,00002.496251,00002.202192,00002.204209,00003.030680,00002.884185,00002.899239,00002.735207,00004.221507,00002.483369,00002.777595,-00000.424453,-00000.119353,-00000.553298,-00000.022653,-00000.117608,-00000.227924
0000000001443,00002.496191,00002.202443,00002.204276,00003.030622,00002.884378,00002.898963,00002.735384,00004.221428,00002.483420,00002.777468,-00000.424459,-00000.119544,-00000.553532,-00000.022784,-00000.118320,-00000.227850
0000000001444,00002.496558,00002.202510,00002.204590,00003.030607,00002.884853,00002.899120,00002.735354,00004.221763,00002.483234,00002.777788,-00000.424463,-00000.119745,-00000.553740,-00000.023094,-00000.119167,-00000.227771
0000000001445,00002.497051,00002.202541,00002.204827,00003.031283,00002.885018,00002.899792,00002.735504,00004.222241,00002.483640,00002.777861,-00000.424468,-00000.119908,-00000.553939,-00000.023387,-00000.119954,-00000.227709
0000000001446,00002.497183,00002.202236,00002.204913,00003.031089,00002.885241,00002.899563,00002.735479,00004.222344,00002.483482,00002.778134,-00000.424471,-00000.120079,-00000.554297,-00000.023832,-00000.120675,-00000.227641
0000000001447,00002.497421,00002.202081,00002.204753,00003.031301,00002.884837,00002.899773,00002.735063,00004.222025,00002.483283,00002.777833,-00000.424476,-00000.120217,-00000.554648,-00000.024082,-00000.121345,-00000.227588
0000000001448,00002.498077,00002.202184,00002.205008,00003.031862,00002.885027,00002.900122,00002.735042,00004.222295,00002.483148,00002.778065,-00000.424478,-00000.120181,-00000.554952,-00000.024279,-00000.122321,-00000.227531
0000000001449,00002.498280,00002.202597,00002.205052,00003.032406,00002.885227,00002.900119,00002.735231,00004.222023,00002.483342,00002.777990,-00000.424664,-00000.120299,-00000.555251,-00000.024673,-00000.123255,-00000.227304
0000000001450,00002.498658,00002.202503,00002.205088,00003.032338,00002.885208,00002.900053,00002.735032,00004.222072,00002.483228,00002.778188,-00000.424666,-00000.120450,-00000.555511,-00000.024840,-00000.124086,-00000.227255
0000000001451,00002.498467,00002.202673,00002.204763,00003.032438,00002.885378,00002.899688,00002.735193,00004.221840,00002.483392,00002.778124,-00000.424642,-00000.120550,-00000.555765,-00000.025176,-00000.124880,-00000.227244
0000000001452,00002.498244,00002.202955,00002.204612,00003.032744,00002.885361,00002.899632,00002.735205,00004.221519,00002.483658,00002.778111,-00000.424644,-00000.120679,-00000.555986,-00000.025500,-00000.125769,-00000.227021
0000000001453,00002.498264,00002.202919,00002.204517,00003.033011,00002.885325,00002.899684,00002.735161,00004.221140,00002.483798,00002.778057,-00000.424624,-00000.120764,-00000.556202,-00000.025786,-00000.126446,-00000.226829
0000000001454,00002.498437,00002.202978,00002.204751,00003.033089,00002.885674,00002.899999,00002.735352,00004.221592,00002.484024,00002.778227,-00000.424625,-00000.120873,-00000.556572,-00000.026062,-00000.127021,-00000.226640
0000000001455,00002.498272,00002.202765,00002.204670,00003.032954,00002.885643,00002.899861,00002.735496,00004.221451,00002.484143,00002.778181,-00000.424608,-00000.120946,-00000.556756,-00000.026305,-00000.127778,-00000.226295
0000000001456,00002.498419,00002.202634,00002.204869,00003.033021,00002.885395,00002.899949,00002.735296,00004.221473,00002.483973,00002.778145,-00000.424610,-00000.120858,-00000.556889,-00000.026540,-00000.128268,-00000.226134
0000000001457,00002.498279,00002.202816,00002.204619,00003.033087,00002.885550,00002.900013,00002.735419,00004.221535,00002.484256,00002.778287,-00000.424595,-00000.120920,-00000.557227,-00000.026747,-00000.128731,-00000.226022
0000000001458,00002.498223,00002.203068,00002.204245,00003.033325,00002.885521,00002.900087,00002.735611,00004.221191,00002.484655,00002.778256,-00000.424596,-00000.120845,-00000.557522,-00000.026947,-00000.129329,-00000.225703
0000000001459,00002.498285,00002.203041,00002.204394,00003.033381,00002.885290,00002.900323,00002.735534,00004.221243,00002.484714,00002.778195,-00000.424584,-00000.120716,-00000.557810,-00000.027123,-00000.129724,-00000.225608
0000000001460,00002.498056,00002.203073,00002.204075,00003.033221,00002.885265,00002.900205,00002.735698,00004.221131,00002.484873,00002.777987,-00000.424585,-00000.120652,-00000.558061,-00000.027293,-00000.130052,-00000.225518
0000000001461,00002.498109,00002.203051,00002.204022,00003.033269,00002.885069,00002.900406,00002.735451,00004.221176,00002.484923,00002.777755,-00000.424574,-00000.120724,-00000.558125,-00000.027444,-00000.130025,-00000.225437
0000000001462,00002.498095,00002.203441,00002.203931,00003.033314,00002.885048,00002.900124,00002.735591,00004.220900,00002.485058,00002.777578,-00000.424575,-00000.120669,-00000.558338,-00000.027407,-00000.129760,-00000.225361
0000000001463,00002.498140,00002.203241,00002.203886,00003.033173,00002.884880,00002.900295,00002.735381,00004.221119,00002.485101,00002.777561,-00000.424747,-00000.120549,-00000.558393,-00000.027535,-00000.129737,-00000.225110
0000000001464,00002.497947,00002.203210,00002.203990,00003.033031,00002.885044,00002.900236,00002.735499,00004.221246,00002.485035,00002.777592,-00000.424929,-00000.120684,-00000.558212,-00000.027504,-00000.129692,-00000.224682
0000000001465,00002.497622,00002.203402,00002.203951,00003.033092,00002.885264,00002.900019,00002.735683,00004.221070,00002.485071,00002.777577,-00000.425076,-00000.120581,-00000.558439,-00000.027250,-00000.129491,-00000.224288
0000000001466,00002.497458,00002.203558,00002.203859,00003.033152,00002.885222,00002.899969,00002.735784,00004.220816,00002.485196,00002.777422,-00000.425231,-00000.120515,-00000.558466,-00000.027042,-00000.129272,-00000.223923
0000000001467,00002.497907,00002.203540,00002.204007,00003.033023,00002.885591,00002.899966,00002.735941,00004.221029,00002.485046,00002.777773,-00000.425356,-00000.120609,-00000.558297,-00000.027007,-00000.128920,-00000.223769
0000000001468,00002.497949,00002.203672,00002.203929,00003.033255,00002.885373,00002.899923,00002.735846,00004.220631,00002.485152,00002.777641,-00000.425488,-00000.120553,-00000.557958,-00000.026830,-00000.128189,-00000.223459
0000000001469,00002.497787,00002.203838,00002.203873,00003.033327,00002.885325,00002.899920,00002.735979,00004.220450,00002.485206,00002.777576,-00000.425413,-00000.120452,-00000.557814,-00000.026619,-00000.127164,-00000.223146
0000000001470,00002.497822,00002.203588,00002.203988,00003.033162,00002.885321,00002.899884,00002.735898,00004.220655,00002.484933,00002.777827,-00000.425344,-00000.120403,-00000.557706,-00000.026468,-00000.126179,-00000.222700
0000000001471,00002.498229,00002.203548,00002.204122,00003.033042,00002.885280,00002.900063,00002.735648,00004.220863,00002.484797,00002.777953,-00000.425280,-00000.120317,-00000.557584,-00000.026289,-00000.125306,-00000.222253
0000000001472,00002.498259,00002.203698,00002.204220,00003.033264,00002.885639,00002.900214,00002.735942,00004.221220,00002.485110,00002.778348,-00000.425221,-00000.120095,-00000.557492,-00000.026160,-00000.124467,-00000.221873
0000000001473,00002.498061,00002.203845,00002.204153,00003.033161,00002.885604,00002.900003,00002.736092,00004.221034,00002.485175,00002.778093,-00000.425167,-00000.120022,-00000.557388,-00000.026007,-00000.123724,-00000.221492
0000000001474,00002.498268,00002.203610,00002.204236,00003.032988,00002.885366,00002.899950,00002.735798,00004.221156,00002.484716,00002.778066,-00000.425117,-00000.120014,-00000.557129,-00000.025898,-00000.122829,-00000.220988
0000000001475,00002.498281,00002.203373,00002.204360,00003.032538,00002.885699,00002.899771,00002.735745,00004.221361,00002.484409,00002.778393,-00000.425252,-00000.119951,-00000.556858,-00000.025768,-00000.122015,-00000.220482
0000000001476,00002.498094,00002.203354,00002.204249,00003.032571,00002.885496,00002.899725,00002.735676,00004.220921,00002.484562,00002.778007,-00000.425391,-00000.119944,-00000.556819,-00000.025675,-00000.121253,-00000.220234
0000000001477,00002.498105,00002.203515,00002.204174,00003.033095,00002.885598,00002.899754,00002.735812,00004.220914,00002.484663,00002.778104,-00000.425687,-00000.119891,-00000.556770,-00000.025564,-00000.120741,-00000.219985
0000000001478,00002.498309,00002.203317,00002.204261,00003.033124,00002.885788,00002.899897,00002.735935,00004.221264,00002.484612,00002.778502,-00000.425805,-00000.120067,-00000.556737,-00000.025667,-00000.120455,-00000.219774
0000000001479,00002.498318,00002.203273,00002.204015,00003.033388,00002.885512,00002.899922,00002.735688,00004.221077,00002.484517,00002.778403,-00000.425876,-00000.120203,-00000.556695,-00000.025754,-00000.120019,-00000.219562
0000000001480,00002.498492,00002.203467,00002.203908,00003.033776,00002.885312,00002.900225,00002.735611,00004.221013,00002.484655,00002.778197,-00000.425977,-00000.120353,-00000.556667,-00000.025841,-00000.119776,-00000.219201
0000000001481,00002.498137,00002.203430,00002.203699,00003.033819,00002.885258,00002.899701,00002.735582,00004.220672,00002.484574,00002.778113,-00000.425856,-00000.120287,-00000.556632,-00000.025733,-00000.119587,-00000.218839
0000000001482,00002.498466,00002.203414,00002.203789,00003.033968,00002.885268,00002.899778,00002.735335,00004.220799,00002.484329,00002.778119,-00000.425941,-00000.120414,-00000.556607,-00000.025808,-00000.119198,-00000.218531
0000000001483,00002.498708,00002.203382,00002.203792,00003.034186,00002.885041,00002.899877,00002.735310,00004.220509,00002.484260,00002.777866,-00000.426020,-00000.120540,-00000.556759,-00000.025716,-00000.118855,-00000.218405
0000000001484,00002.498988,00002.203368,00002.203869,00003.034312,00002.885050,00002.900123,00002.735282,00004.220798,00002.484051,00002.778052,-00000.425911,-00000.120648,-00000.556738,-00000.025779,-00000.118706,-00000.218324
0000000001485,00002.498832,00002.203159,00002.203872,00003.034136,00002.885220,00002.899844,00002.735261,00004.220914,00002.483992,00002.778381,-00000.425797,-00000.120755,-00000.556685,-00000.025883,-00000.118777,-00000.218216
0000000001486,00002.498889,00002.203148,00002.203937,00003.034062,00002.885409,00002.899873,00002.735055,00004.221160,00002.483996,00002.778540,-00000.425704,-00000.120666,-00000.556668,-00000.025937,-00000.118831,-00000.218148
0000000001487,00002.499118,00002.203333,00002.204302,00003.033912,00002.885735,00002.899817,00002.735037,00004.221621,00002.483946,00002.778820,-00000.425244,-00000.120576,-00000.556623,-00000.026025,-00000.119255,-00000.217875
0000000001488,00002.499348,00002.203868,00002.204539,00003.034030,00002.886077,00002.900023,00002.735043,00004.221831,00002.483767,00002.778955,-00000.424802,-00000.120500,-00000.556427,-00000.026071,-00000.119482,-00000.217454
0000000001489,00002.499725,00002.204751,00002.204669,00003.034628,00002.886354,00002.900338,00002.735391,00004.221861,00002.484088,00002.779012,-00000.424592,-00000.120423,-00000.556389,-00000.025964,-00000.119480,-00000.217040
0000000001490,00002.499739,00002.205387,00002.204689,00003.034910,00002.886464,00002.900150,00002.735759,00004.221495,00002.484299,00002.778946,-00000.424216,-00000.120359,-00000.556403,-00000.025822,-00000.119673,-00000.216681
0000000001491,00002.499879,00002.205776,00002.204618,00003.035237,00002.886337,00002.900418,00002.735692,00004.221339,00002.484208,00002.778813,-00000.423855,-00000.120112,-00000.556370,-00000.025731,-00000.119853,-00000.216329
0000000001492,00002.499709,00002.205592,00002.204454,00003.035114,00002.885887,00002.900440,00002.735279,00004.221209,00002.484025,00002.778575,-00000.423717,-00000.120238,-00000.556383,-00000.025791,-00000.120199,-00000.216205
0000000001493,00002.499465,00002.205742,00002.204393,00003.035212,00002.885960,00002.899943,00002.735404,00004.220895,00002.483949,00002.778462,-00000.423591,-00000.120391,-00000.556355,-00000.025896,-00000.120533,-00000.216087
0000000001494,00002.499684,00002.205767,00002.204616,00003.035289,00002.886121,00002.899961,00002.735416,00004.220966,00002.483792,00002.778803,-00000.423473,-00000.120498,-00000.556365,-00000.025947,-00000.120828,-00000.215981
0000000001495,00002.499839,00002.205894,00002.204746,00003.035190,00002.886365,00002.899901,00002.735703,00004.221243,00002.483909,00002.778888,-00000.423548,-00000.120628,-00000.556523,-00000.026217,-00000.121294,-00000.215880
0000000001496,00002.499662,00002.205916,00002.204573,00003.035074,00002.886320,00002.899554,00002.735894,00004.221121,00002.483957,00002.778816,-00000.423629,-00000.120720,-00000.556532,-00000.026624,-00000.121726,-00000.215791
0000000001497,00002.499794,00002.205843,00002.204503,00003.035172,00002.885984,00002.899865,00002.735595,00004.221176,00002.484056,00002.778707,-00000.423511,-00000.120831,-00000.556485,-00000.026854,-00000.121941,-00000.215705
0000000001498,00002.499825,00002.205498,00002.204537,00003.035073,00002.885946,00002.899751,00002.735576,00004.221254,00002.483916,00002.778646,-00000.423398,-00000.120727,-00000.556492,-00000.027018,-00000.122128,-00000.215628
0000000001499,00002.499756,00002.205436,00002.204295,00003.035156,00002.885659,00002.900016,00002.735503,00004.220937,00002.484000,00002.778553,-00000.423479,-00000.120821,-00000.556452,-00000.027214,-00000.121948,-00000.215737
0000000001500,00002.499420,00002.205687,00002.204143,00003.035254,00002.885627,00002.899737,00002.735669,00004.220641,00002.484244,00002.778320,-00000.423565,-00000.120915,-00000.556640,-00000.027354,-00000.122107,-00000.215853
0000000001501,00002.499180,00002.205452,00002.203937,00003.035324,00002.885564,00002.899782,00002.735606,00004.220553,00002.484497,00002.778241,-00000.423634,-00000.120995,-00000.556788,-00000.027339,-00000.122498,-00000.215764
0000000001502,00002.498893,00002.205122,00002.203807,00003.035045,00002.885537,00002.899544,00002.735747,00004.220482,00002.484704,00002.778224,-00000.423707,-00000.121074,-00000.556947,-00000.027459,-00000.122996,-00000.215681
0000000001503,00002.498870,00002.205285,00002.203814,00003.035105,00002.885665,00002.899401,00002.735875,00004.220407,00002.484920,00002.778338,-00000.423766,-00000.121324,-00000.557073,-00000.027628,-00000.123511,-00000.215605
0000000001504,00002.498989,00002.205185,00002.203885,00003.034867,00002.885823,00002.899199,00002.735632,00004.220528,00002.484915,00002.778504,-00000.423828,-00000.121573,-00000.557209,-00000.027729,-00000.124116,-00000.215535
0000000001505,00002.499151,00002.205143,00002.203890,00003.035280,00002.885932,00002.899621,00002.735560,00004.220827,00002.485098,00002.778601,-00000.424059,-00000.121967,-00000.557497,-00000.028054,-00000.124554,-00000.215652
0000000001506,00002.499434,00002.205057,00002.204132,00003.035441,00002.885885,00002.899993,00002.735353,00004.221112,00002.485094,00002.778562,-00000.424475,-00000.122360,-00000.557976,-00000.028503,-00000.125070,-00000.215955
0000000001507,00002.499571,00002.204840,00002.204318,00003.035249,00002.885978,00002.899808,00002.735292,00004.221366,00002.484887,00002.779007,-00000.424853,-00000.122696,-00000.558402,-00000.028962,-00000.125805,-00000.216236
0000000001508,00002.499631,00002.205130,00002.204524,00003.035566,00002.886120,00002.899943,00002.735479,00004.221246,00002.485065,00002.778974,-00000.425388,-00000.123212,-00000.558810,-00000.029344,-00000.126607,-00000.216494
0000000001509,00002.499929,00002.204945,00002.204863,00003.035584,00002.886199,00002.900149,00002.735245,00004.221462,00002.484889,00002.778990,-00000.425710,-00000.123679,-00000.559173,-00000.029734,-00000.127596,-00000.216914
0000000001510,00002.499799,00002.205011,00002.204676,00003.036036,00002.885956,00002.900264,00002.735404,00004.221178,00002.485222,00002.778780,-00000.425985,-00000.124118,-00000.559701,-00000.030241,-00000.128641,-00000.217134
0000000001511,00002.500053,00002.205216,00002.204965,00003.036052,00002.886205,00002.900257,00002.735568,00004.221363,00002.485254,00002.779157,-00000.426259,-00000.124334,-00000.560011,-00000.030573,-00000.129483,-00000.217492
0000000001512,00002.500123,00002.205272,00002.204805,00003.036436,00002.885817,00002.900356,00002.735340,00004.221121,00002.485355,00002.779160,-00000.426492,-00000.124709,-00000.560279,-00000.031005,-00000.130373,-00000.217679
0000000001513,00002.500339,00002.205084,00002.205052,00003.036449,00002.885848,00002.900531,00002.735117,00004.221278,00002.485382,00002.779299,-00000.426726,-00000.125074,-00000.560724,-00000.031469,-00000.131089,-00000.217984
0000000001514,00002.500036,00002.205131,00002.204916,00003.036777,00002.885880,00002.900434,00002.735467,00004.221253,00002.485832,00002.779301,-00000.426924,-00000.125392,-00000.560952,-00000.031836,-00000.131847,-00000.218324
0000000001515,00002.500220,00002.204971,00002.205125,00003.036788,00002.885725,00002.900402,00002.735277,00004.221206,00002.485673,00002.779420,-00000.426942,-00000.125703,-00000.561331,-00000.032050,-00000.132638,-00000.218402
0000000001516,00002.500325,00002.205012,00002.205372,00003.036704,00002.885934,00002.900500,00002.735213,00004.221366,00002.485512,00002.779603,-00000.426930,-00000.125793,-00000.561525,-00000.032181,-00000.133465,-00000.218692
0000000001517,00002.500119,00002.204876,00002.205007,00003.036895,00002.885439,00002.900473,00002.735051,00004.220963,00002.485740,00002.779523,-00000.426944,-00000.125877,-00000.561666,-00000.032363,-00000.134501,-00000.218940
0000000001518,00002.500208,00002.204910,00002.205036,00003.036823,00002.885435,00002.900194,00002.735178,00004.220918,00002.485602,00002.779679,-00000.426934,-00000.125772,-00000.561650,-00000.032294,-00000.135386,-00000.219187
0000000001519,00002.499851,00002.205157,00002.204906,00003.036986,00002.885558,00002.900171,00002.735403,00004.220938,00002.485796,00002.779429,-00000.426765,-00000.125661,-00000.561589,-00000.032267,-00000.136087,-00000.219398
0000000001520,00002.499927,00002.205730,00002.205112,00003.037469,00002.885737,00002.900296,00002.735692,00004.220899,00002.486042,00002.779199,-00000.426575,-00000.125753,-00000.561575,-00000.032208,-00000.136659,-00000.219427
0000000001521,00002.499986,00002.205759,00002.205364,00003.037245,00002.886022,00002.900095,00002.735883,00004.221097,00002.486026,00002.779349,-00000.426431,-00000.125659,-00000.561341,-00000.032185,-00000.136893,-00000.219425
0000000001522,00002.499869,00002.205522,00002.205539,00003.037112,00002.885993,00002.900201,00002.735767,00004.221428,00002.486054,00002.779516,-00000.426088,-00000.125556,-00000.561148,-00000.032135,-00000.137017,-00000.219268
0000000001523,00002.500101,00002.205365,00002.205572,00003.037102,00002.885874,00002.900393,00002.735748,00004.221415,00002.485858,00002.779644,-00000.425784,-00000.125476,-00000.561131,-00000.032116,-00000.137216,-00000.219085
0000000001524,00002.500183,00002.205344,00002.205722,00003.036989,00002.886211,00002.900484,00002.735649,00004.221696,00002.485701,00002.779786,-00000.425492,-00000.125207,-00000.560967,-00000.032073,-00000.137322,-00000.218951
0000000001525,00002.500017,00002.205755,00002.205750,00003.037525,00002.886472,00002.900465,00002.735996,00004.221685,00002.485897,00002.779713,-00000.425233,-00000.125139,-00000.560952,-00000.032056,-00000.137491,-00000.218796
0000000001526,00002.499906,00002.205737,00002.205514,00003.037973,00002.886397,00002.900361,00002.736093,00004.221380,00002.486126,00002.779472,-00000.424984,-00000.125091,-00000.560993,-00000.032020,-00000.137944,-00000.218682
0000000001527,00002.499583,00002.205724,00002.205357,00003.038067,00002.886438,00002.900346,00002.736207,00004.221190,00002.486293,00002.779228,-00000.424764,-00000.125033,-00000.560981,-00000.032006,-00000.138451,-00000.218549
0000000001528,00002.499670,00002.205346,00002.205338,00003.037904,00002.886011,00002.900257,00002.735746,00004.221111,00002.486125,00002.779023,-00000.424734,-00000.125174,-00000.561016,-00000.031975,-00000.138836,-00000.218452
0000000001529,00002.499758,00002.205335,00002.205567,00003.037802,00002.886409,00002.900244,00002.735843,00004.221493,00002.486267,00002.779360,-00000.424728,-00000.125306,-00000.561005,-00000.031963,-00000.139268,-00000.218521
0000000001530,00002.499650,00002.205557,00002.205369,00003.038026,00002.886408,00002.900349,00002.735813,00004.221064,00002.486487,00002.779184,-00000.424883,-00000.125244,-00000.561035,-00000.031755,-00000.139233,-00000.218438
0000000001531,00002.499363,00002.205729,00002.205201,00003.037939,00002.886384,00002.899975,00002.735895,00004.220845,00002.486427,00002.779109,-00000.425059,-00000.125357,-00000.561026,-00000.031564,-00000.139057,-00000.218134
0000000001532,00002.499634,00002.205737,00002.205395,00003.037949,00002.886383,00002.900247,00002.735870,00004.221205,00002.486251,00002.779322,-00000.425192,-00000.125304,-00000.561052,-00000.031568,-00000.138664,-00000.217882
0000000001533,00002.499207,00002.205702,00002.205252,00003.037875,00002.886363,00002.899747,00002.735940,00004.221018,00002.486381,00002.779076,-00000.425160,-00000.125219,-00000.560862,-00000.031586,-00000.138333,-00000.217442
0000000001534,00002.498894,00002.205709,00002.205237,00003.037520,00002.886544,00002.899615,00002.736100,00004.221144,00002.486594,00002.779077,-00000.425273,-00000.125355,-00000.560703,-00000.031590,-00000.137817,-00000.217046
0000000001535,00002.499075,00002.205679,00002.205659,00003.037639,00002.886707,00002.899916,00002.736159,00004.221710,00002.486705,00002.779230,-00000.425428,-00000.125464,-00000.560723,-00000.031606,-00000.137535,-00000.216853
0000000001536,00002.499171,00002.205685,00002.206008,00003.037881,00002.886499,00002.900348,00002.736114,00004.222180,00002.486705,00002.779231,-00000.425524,-00000.125580,-00000.560769,-00000.031790,-00000.137277,-00000.216697
0000000001537,00002.498963,00002.205478,00002.205824,00003.038163,00002.886094,00002.900422,00002.735983,00004.222300,00002.486800,00002.778999,-00000.425655,-00000.125673,-00000.560786,-00000.031985,-00000.137400,-00000.216532
0000000001538,00002.498682,00002.205664,00002.205940,00003.038188,00002.886460,00002.900608,00002.736307,00004.222881,00002.487162,00002.779362,-00000.425556,-00000.125590,-00000.561006,-00000.032142,-00000.137543,-00000.216582
0000000001539,00002.498323,00002.205488,00002.205601,00003.037884,00002.886297,00002.900308,00002.736378,00004.222438,00002.487243,00002.779164,-00000.425487,-00000.125488,-00000.561021,-00000.032308,-00000.137829,-00000.216623
0000000001540,00002.498083,00002.205284,00002.205519,00003.037724,00002.886246,00002.899923,00002.736472,00004.222207,00002.487007,00002.779110,-00000.425402,-00000.125418,-00000.561208,-00000.032442,-00000.137951,-00000.216483
0000000001541,00002.498141,00002.205134,00002.205775,00003.037465,00002.886289,00002.900031,00002.736169,00004.222556,00002.486894,00002.779124,-00000.425343,-00000.125330,-00000.561221,-00000.032583,-00000.137832,-00000.216518
0000000001542,00002.497574,00002.205142,00002.205341,00003.037510,00002.886064,00002.899884,00002.736068,00004.221997,00002.487238,00002.778715,-00000.425452,-00000.125270,-00000.561380,-00000.032515,-00000.137754,-00000.216399
0000000001543,00002.497442,00002.205014,00002.205559,00003.037472,00002.886100,00002.899976,00002.736173,00004.222294,00002.487142,00002.778908,-00000.425583,-00000.125014,-00000.561391,-00000.032454,-00000.137471,-00000.216066
0000000001544,00002.496959,00002.205202,00002.205372,00003.037510,00002.885909,00002.899851,00002.736269,00004.221999,00002.487435,00002.778741,-00000.425494,-00000.124964,-00000.561346,-00000.032397,-00000.137043,-00000.215602
0000000001545,00002.496484,00002.205456,00002.205195,00003.037295,00002.885940,00002.899747,00002.736358,00004.221708,00002.487716,00002.778543,-00000.425425,-00000.124746,-00000.561355,-00000.032345,-00000.136620,-00000.215137
0000000001546,00002.495892,00002.205435,00002.204854,00003.037328,00002.885777,00002.899459,00002.736258,00004.221457,00002.487783,00002.778220,-00000.425349,-00000.124521,-00000.561316,-00000.032114,-00000.136437,-00000.214742
0000000001547,00002.495668,00002.205288,00002.204884,00003.037145,00002.885803,00002.899371,00002.736334,00004.221572,00002.487660,00002.778232,-00000.425290,-00000.124336,-00000.561324,-00000.032070,-00000.136258,-00000.214347
0000000001548,00002.495527,00002.205089,00002.204957,00003.036992,00002.886028,00002.899308,00002.736249,00004.221721,00002.487536,00002.778501,-00000.425045,-00000.124145,-00000.561109,-00000.031874,-00000.135921,-00000.214010
0000000001549,00002.495337,00002.205327,00002.204801,00003.037199,00002.886050,00002.899233,00002.736495,00004.221456,00002.487794,00002.778511,-00000.424994,-00000.123805,-00000.560934,-00000.031655,-00000.135406,-00000.213673
0000000001550,00002.494854,00002.205520,00002.204682,00003.037250,00002.885878,00002.899179,00002.736422,00004.221220,00002.487870,00002.778378,-00000.424966,-00000.123643,-00000.560752,-00000.031488,-00000.135119,-00000.213387
0000000001551,00002.494329,00002.205178,00002.204731,00003.037245,00002.885534,00002.899478,00002.736088,00004.221539,00002.487726,00002.778386,-00000.424923,-00000.123535,-00000.560603,-00000.031301,-00000.134862,-00000.213100
0000000001552,00002.494099,00002.204798,00002.204810,00003.037288,00002.885569,00002.899795,00002.736026,00004.221882,00002.487609,00002.778635,-00000.424900,-00000.123578,-00000.560629,-00000.031159,-00000.134799,-00000.213038
0000000001553,00002.493471,00002.204689,00002.204671,00003.036740,00002.885639,00002.899505,00002.735922,00004.221790,00002.487669,00002.778643,-00000.425045,-00000.123668,-00000.560502,-00000.031181,-00000.134762,-00000.213157
0000000001554,00002.493094,00002.204547,00002.204920,00003.036595,00002.885851,00002.899775,00002.735870,00004.221901,00002.487569,00002.778855,-00000.425025,-00000.123523,-00000.560343,-00000.031242,-00000.134889,-00000.213285
0000000001555,00002.492559,00002.204635,00002.204801,00003.036491,00002.885910,00002.899709,00002.735963,00004.221823,00002.487801,00002.778680,-00000.424966,-00000.123418,-00000.560235,-00000.031080,-00000.134676,-00000.213205
0000000001556,00002.492057,00002.204695,00002.204650,00003.036549,00002.885727,00002.899576,00002.735918,00004.221555,00002.487717,00002.778316,-00000.424949,-00000.123113,-00000.559918,-00000.031131,-00000.134059,-00000.212951
0000000001557,00002.491965,00002.204771,00002.205093,00003.036461,00002.885959,00002.899702,00002.735635,00004.221852,00002.487551,00002.778167,-00000.424719,-00000.122843,-00000.559826,-00000.030993,-00000.133515,-00000.212701
0000000001558,00002.491718,00002.204641,00002.205328,00003.036147,00002.885985,00002.899589,00002.735597,00004.221986,00002.487479,00002.778039,-00000.424704,-00000.122583,-00000.559557,-00000.030674,-00000.132808,-00000.212486
0000000001559,00002.491277,00002.204886,00002.204980,00003.036435,00002.886001,00002.899696,00002.735718,00004.221694,00002.487520,00002.777912,-00000.424689,-00000.122353,-00000.559297,-00000.030375,-00000.132164,-00000.212273
0000000001560,00002.491067,00002.204775,00002.205179,00003.036168,00002.886205,00002.899781,00002.735867,00004.221990,00002.487458,00002.777984,-00000.424858,-00000.122313,-00000.559249,-00000.030285,-00000.131925,-00000.211908
0000000001561,00002.490691,00002.204803,00002.205245,00003.035869,00002.886400,00002.899690,00002.735971,00004.221923,00002.487312,00002.778058,-00000.425026,-00000.122299,-00000.559209,-00000.030212,-00000.131920,-00000.211545
0000000001562,00002.490513,00002.205072,00002.205415,00003.035823,00002.886754,00002.899763,00002.736097,00004.221993,00002.487622,00002.778119,-00000.425170,-00000.122265,-00000.559168,-00000.030135,-00000.131899,-00000.211416
0000000001563,00002.490556,00002.205095,00002.205290,00003.035931,00002.886376,00002.900049,00002.735641,00004.221755,00002.487316,00002.778182,-00000.425314,-00000.122252,-00000.559134,-00000.030073,-00000.131895,-00000.211289
0000000001564,00002.490585,00002.204961,00002.205253,00003.036073,00002.885952,00002.900110,00002.735386,00004.221815,00002.487217,00002.778053,-00000.425255,-00000.122224,-00000.559099,-00000.030008,-00000.131695,-00000.211179
0000000001565,00002.490985,00002.204981,00002.205691,00003.036528,00002.885993,00002.900717,00002.735542,00004.222337,00002.487319,00002.778106,-00000.425196,-00000.122032,-00000.559071,-00000.030136,-00000.131691,-00000.211070
0000000001566,00002.491191,00002.204867,00002.205841,00003.036468,00002.885995,00002.900769,00002.735325,00004.222570,00002.487054,00002.778177,-00000.425145,-00000.121826,-00000.559041,-00000.030080,-00000.131521,-00000.210795
0000000001567,00002.491350,00002.205246,00002.206033,00003.036492,00002.886393,00002.900741,00002.735640,00004.222470,00002.487141,00002.778041,-00000.425095,-00000.121663,-00000.559016,-00000.030190,-00000.131518,-00000.210522
0000000001568,00002.491344,00002.205512,00002.205979,00003.036441,00002.886576,00002.900604,00002.735818,00004.222305,00002.487460,00002.778102,-00000.425052,-00000.121669,-00000.559354,-00000.030324,-00000.131736,-00000.210287
0000000001569,00002.491479,00002.205835,00002.205779,00003.036643,00002.886371,00002.900761,00002.735722,00004.222039,00002.487533,00002.777805,-00000.425009,-00000.121711,-00000.559514,-00000.030417,-00000.132097,-00000.209873
0000000001570,00002.491837,00002.206243,00002.205915,00003.036962,00002.886345,00002.901189,00002.735874,00004.222262,00002.487804,00002.777675,-00000.424973,-00000.121535,-00000.559620,-00000.030531,-00000.132463,-00000.209674
0000000001571,00002.492133,00002.206518,00002.205744,00003.036953,00002.885988,00002.901142,00002.735611,00004.221854,00002.487686,00002.777422,-00000.424936,-00000.121571,-00000.559576,-00000.030610,-00000.132770,-00000.209502
0000000001572,00002.492075,00002.206684,00002.205860,00003.036680,00002.886148,00002.901143,00002.735740,00004.221680,00002.487373,00002.777494,-00000.424905,-00000.121602,-00000.559666,-00000.030707,-00000.133264,-00000.209151
0000000001573,00002.491783,00002.206736,00002.205896,00003.036128,00002.886389,00002.900740,00002.735698,00004.221696,00002.487090,00002.777641,-00000.424693,-00000.121451,-00000.559628,-00000.030775,-00000.133525,-00000.208824
0000000001574,00002.491552,00002.207059,00002.205813,00003.036259,00002.886706,00002.900741,00002.735989,00004.221911,00002.487368,00002.777883,-00000.424667,-00000.121478,-00000.559523,-00000.030857,-00000.133583,-00000.208525
0000000001575,00002.491667,00002.207104,00002.205845,00003.036333,00002.886367,00002.900942,00002.735772,00004.221925,00002.487309,00002.777645,-00000.424667,-00000.121531,-00000.559491,-00000.030915,-00000.133805,-00000.208065
0000000001576,00002.491470,00002.207378,00002.205955,00003.036082,00002.886637,00002.900943,00002.735839,00004.221926,00002.487001,00002.777670,-00000.424645,-00000.121373,-00000.559402,-00000.030985,-00000.134035,-00000.207810
0000000001577,00002.491023,00002.207598,00002.205800,00003.036145,00002.886530,00002.900933,00002.735835,00004.221756,00002.487132,00002.777468,-00000.424645,-00000.121236,-00000.559374,-00000.031034,-00000.134043,-00000.207600
0000000001578,00002.490493,00002.207831,00002.205532,00003.035931,00002.886397,00002.900390,00002.735892,00004.221395,00002.487051,00002.777308,-00000.424626,-00000.121283,-00000.559298,-00000.031094,-00000.134421,-00000.207202
0000000001579,00002.490294,00002.207837,00002.205763,00003.035985,00002.886305,00002.900562,00002.735889,00004.221613,00002.486800,00002.777317,-00000.424626,-00000.121167,-00000.559275,-00000.031136,-00000.134609,-00000.207023
0000000001580,00002.489843,00002.208217,00002.205897,00003.036347,00002.886192,00002.901007,00002.736118,00004.221487,00002.487094,00002.776999,-00000.424610,-00000.121206,-00000.559392,-00000.031187,-00000.134749,-00000.207047
0000000001581,00002.489311,00002.208585,00002.205731,00003.036392,00002.886114,00002.900972,00002.736116,00004.221309,00002.487243,00002.776825,-00000.424610,-00000.121108,-00000.559553,-00000.031222,-00000.135272,-00000.206895
0000000001582,00002.488927,00002.208727,00002.205482,00003.036519,00002.885655,00002.901169,00002.735949,00004.221021,00002.487312,00002.776373,-00000.424415,-00000.120778,-00000.559471,-00000.031265,-00000.135754,-00000.206915
0000000001583,00002.488655,00002.208677,00002.205522,00003.036377,00002.885408,00002.901321,00002.735765,00004.221233,00002.487076,00002.776407,-00000.424234,-00000.120513,-00000.559427,-00000.031114,-00000.136199,-00000.206786
0000000001584,00002.488146,00002.208617,00002.205310,00003.036485,00002.885198,00002.901489,00002.735804,00004.221168,00002.486953,00002.776204,-00000.424068,-00000.120051,-00000.559357,-00000.030970,-00000.136246,-00000.206440
0000000001585,00002.487734,00002.208575,00002.205163,00003.036545,00002.884987,00002.901437,00002.735829,00004.220986,00002.487115,00002.776051,-00000.423914,-00000.119825,-00000.559320,-00000.030660,-00000.136262,-00000.206149
0000000001586,00002.487482,00002.208342,00002.205164,00003.036274,00002.884991,00002.901217,00002.735862,00004.220749,00002.487011,00002.775878,-00000.423953,-00000.119432,-00000.559260,-00000.030355,-00000.136121,-00000.205673
0000000001587,00002.487131,00002.207762,00002.205401,00003.035962,00002.884993,00002.900991,00002.735884,00004.220957,00002.486423,00002.776111,-00000.423822,-00000.119240,-00000.559229,-00000.030091,-00000.135954,-00000.204880
0000000001588,00002.486373,00002.207201,00002.205040,00003.036094,00002.884451,00002.900804,00002.735730,00004.220756,00002.486153,00002.775782,-00000.423675,-00000.119087,-00000.559178,-00000.029832,-00000.136015,-00000.203931
0000000001589,00002.486074,00002.206707,00002.205242,00003.036010,00002.884815,00002.901156,00002.735930,00004.221477,00002.486015,00002.776343,-00000.423563,-00000.118742,-00000.559332,-00000.029607,-00000.136235,-00000.202894
0000000001590,00002.485791,00002.206048,00002.205296,00003.035760,00002.884899,00002.900997,00002.735800,00004.221668,00002.485422,00002.776607,-00000.423438,-00000.118430,-00000.558926,-00000.029387,-00000.136469,-00000.201905
0000000001591,00002.485355,00002.205446,00002.205287,00003.035326,00002.884846,00002.900752,00002.735425,00004.221738,00002.484761,00002.776722,-00000.423342,-00000.118136,-00000.558695,-00000.029196,-00000.136656,-00000.201021
0000000001592,00002.484933,00002.205066,00002.205152,00003.035294,00002.884735,00002.900617,00002.735496,00004.221538,00002.484619,00002.776584,-00000.423236,-00000.117689,-00000.558712,-00000.029008,-00000.137037,-00000.200361
0000000001593,00002.484380,00002.204554,00002.204963,00003.035469,00002.884328,00002.900771,00002.735540,00004.221416,00002.484600,00002.776319,-00000.423155,-00000.117258,-00000.558697,-00000.028845,-00000.137196,-00000.199790
0000000001594,00002.484021,00002.203868,00002.204848,00003.035260,00002.883690,00002.900656,00002.735056,00004.221246,00002.484117,00002.776202,-00000.423064,-00000.116877,-00000.558711,-00000.028866,-00000.137701,-00000.199228
0000000001595,00002.483551,00002.203432,00002.204868,00003.035046,00002.883887,00002.900425,00002.735093,00004.221323,00002.483738,00002.776520,-00000.422995,-00000.116510,-00000.558698,-00000.029091,-00000.138200,-00000.198742
0000000001596,00002.483245,00002.202848,00002.204771,00003.034869,00002.883343,00002.900508,00002.734862,00004.221360,00002.483326,00002.776420,-00000.422736,-00000.116186,-00000.558711,-00000.029290,-00000.138448,-00000.198082
0000000001597,00002.483207,00002.202114,00002.205151,00003.034505,00002.883149,00002.900492,00002.734713,00004.221607,00002.483185,00002.776510,-00000.422496,-00000.115873,-00000.558699,-00000.029481,-00000.138691,-00000.197668
0000000001598,00002.482947,00002.201617,00002.205430,00003.034173,00002.883230,00002.900382,00002.734698,00004.222001,00002.482835,00002.776788,-00000.422457,-00000.115779,-00000.558710,-00000.029651,-00000.139085,-00000.197288
0000000001599,00002.482915,00002.201173,00002.205572,00003.034044,00002.883427,00002.900550,00002.734752,00004.222393,00002.482715,00002.777045,-00000.422434,-00000.115513,-00000.558882,-00000.029814,-00000.139473,-00000.196936
0000000001600,00002.482874,00002.200931,00002.205629,00003.034124,00002.883134,00002.900637,00002.734558,00004.222003,00002.481872,00002.776919,-00000.422401,-00000.115433,-00000.558891,-00000.029958,-00000.139445,-00000.196793
0000000001601,00002.482303,00002.200191,00002.205569,00003.033652,00002.882576,00002.900418,00002.734060,00004.221792,00002.480681,00002.776594,-00000.422381,-00000.115206,-00000.558856,-00000.030097,-00000.139775,-00000.196675
0000000001602,00002.481906,00002.199985,00002.205436,00003.033358,00002.882689,00002.900129,00002.734257,00004.221823,00002.479783,00002.776850,-00000.422171,-00000.114956,-00000.558682,-00000.030038,-00000.140114,-00000.196553
0000000001603,00002.481601,00002.199899,00002.205565,00003.033137,00002.882939,00002.899942,00002.734559,00004.221825,00002.478951,00002.777117,-00000.421973,-00000.114763,-00000.558470,-00000.030156,-00000.140214,-00000.196453
0000000001604,00002.481444,00002.199724,00002.205452,00003.033249,00002.882673,00002.900241,00002.734545,00004.221851,00002.478185,00002.776972,-00000.421976,-00000.114732,-00000.558323,-00000.030288,-00000.140502,-00000.196349
0000000001605,00002.481184,00002.199469,00002.205200,00003.033243,00002.882342,00002.900263,00002.734621,00004.221490,00002.477477,00002.776656,-00000.421989,-00000.114749,-00000.558506,-00000.030388,-00000.140769,-00000.196264
0000000001606,00002.480688,00002.199320,00002.204922,00003.033156,00002.882115,00002.900336,00002.734609,00004.221331,00002.476826,00002.776350,-00000.422173,-00000.114723,-00000.558561,-00000.030501,-00000.140833,-00000.196176
0000000001607,00002.480467,00002.199103,00002.204889,00003.033333,00002.882015,00002.900536,00002.734674,00004.221568,00002.476586,00002.776444,-00000.422365,-00000.114737,-00000.558535,-00000.030586,-00000.141060,-00000.196103
0000000001608,00002.480226,00002.198976,00002.205015,00003.032896,00002.882185,00002.900235,00002.734845,00004.221613,00002.476031,00002.776728,-00000.422341,-00000.114715,-00000.558583,-00000.030681,-00000.141115,-00000.196209
0000000001609,00002.480038,00002.198792,00002.204805,00003.032865,00002.881918,00002.900224,00002.734719,00004.221452,00002.475464,00002.776627,-00000.422504,-00000.114546,-00000.558561,-00000.030754,-00000.141126,-00000.196328
0000000001610,00002.479470,00002.198502,00002.204550,00003.032675,00002.881699,00002.899787,00002.734683,00004.221129,00002.474992,00002.776324,-00000.422664,-00000.114345,-00000.558601,-00000.030835,-00000.141173,-00000.196238
0000000001611,00002.478947,00002.198345,00002.204371,00003.032467,00002.881835,00002.899415,00002.734938,00004.220629,00002.474509,00002.776238,-00000.422622,-00000.114201,-00000.558401,-00000.030716,-00000.140820,-00000.196158
0000000001612,00002.478826,00002.198280,00002.204154,00003.032486,00002.881649,00002.899042,00002.735090,00004.220172,00002.473926,00002.776162,-00000.422577,-00000.114031,-00000.558435,-00000.030785,-00000.140860,-00000.195899
0000000001613,00002.478925,00002.198146,00002.204546,00003.032309,00002.882128,00002.899089,00002.735125,00004.220653,00002.473333,00002.776270,-00000.422723,-00000.113908,-00000.558265,-00000.030683,-00000.140741,-00000.195650
0000000001614,00002.478641,00002.197909,00002.204361,00003.032145,00002.881969,00002.898953,00002.735073,00004.220627,00002.473018,00002.776205,-00000.422866,-00000.113944,-00000.558113,-00000.030379,-00000.140774,-00000.195611
0000000001615,00002.478181,00002.197977,00002.204151,00003.032175,00002.881832,00002.898992,00002.735284,00004.220492,00002.472876,00002.776115,-00000.422990,-00000.113840,-00000.557968,-00000.030111,-00000.140673,-00000.195399
0000000001616,00002.478302,00002.197775,00002.204356,00003.031854,00002.881879,00002.899058,00002.735058,00004.220833,00002.472245,00002.776423,-00000.422931,-00000.113689,-00000.557838,-00000.030034,-00000.140339,-00000.195184
0000000001617,00002.478273,00002.197470,00002.204358,00003.031335,00002.881944,00002.898910,00002.735057,00004.220900,00002.471762,00002.776528,-00000.422855,-00000.113600,-00000.557715,-00000.029806,-00000.139709,-00000.195004
0000000001618,00002.478558,00002.197298,00002.204533,00003.031062,00002.881983,00002.899148,00002.734865,00004.221190,00002.471950,00002.776972,-00000.422804,-00000.113472,-00000.557604,-00000.029740,-00000.139243,-00000.194640
0000000001619,00002.477989,00002.197220,00002.203991,00003.030802,00002.881494,00002.899022,00002.734864,00004.220702,00002.471902,00002.776517,-00000.422921,-00000.113396,-00000.557499,-00000.029546,-00000.138888,-00000.194304
0000000001620,00002.477868,00002.197255,00002.204140,00003.030569,00002.881710,00002.898861,00002.735063,00004.220768,00002.471881,00002.776532,-00000.423059,-00000.113287,-00000.557405,-00000.029309,-00000.138310,-00000.194176
0000000001621,00002.477565,00002.197188,00002.204222,00003.030166,00002.881837,00002.898754,00002.735243,00004.220716,00002.471658,00002.776507,-00000.423158,-00000.113041,-00000.557316,-00000.029143,-00000.138007,-00000.194072
0000000001622,00002.477281,00002.197218,00002.204349,00003.030149,00002.881839,00002.898980,00002.735231,00004.220590,00002.471458,00002.776338,-00000.423095,-00000.112767,-00000.557236,-00000.029122,-00000.137334,-00000.193963
0000000001623,00002.476661,00002.197162,00002.204057,00003.029807,00002.881767,00002.898707,00002.735203,00004.220364,00002.471087,00002.775955,-00000.423179,-00000.112558,-00000.557160,-00000.028982,-00000.136895,-00000.193693
0000000001624,00002.476600,00002.196824,00002.204346,00003.029429,00002.882131,00002.898718,00002.735193,00004.220983,00002.470736,00002.776174,-00000.423306,-00000.112324,-00000.557092,-00000.028783,-00000.136503,-00000.193600
0000000001625,00002.476797,00002.196776,00002.204460,00003.029500,00002.881888,00002.898849,00002.734988,00004.220972,00002.470239,00002.775847,-00000.423197,-00000.112146,-00000.557027,-00000.028663,-00000.135948,-00000.193551
0000000001626,00002.476927,00002.196489,00002.204706,00003.029179,00002.881835,00002.898858,00002.734617,00004.220955,00002.469577,00002.775490,-00000.423124,-00000.111766,-00000.557150,-00000.028675,-00000.135615,-00000.193291
0000000001627,00002.476914,00002.196448,00002.204984,00003.028877,00002.882172,00002.898607,00002.734624,00004.220945,00002.469154,00002.775574,-00000.423031,-00000.111252,-00000.557095,-00000.028754,-00000.135142,-00000.193068
0000000001628,00002.476480,00002.196566,00002.205012,00003.028785,00002.882128,00002.898796,00002.735033,00004.221112,00002.469135,00002.775451,-00000.423150,-00000.111109,-00000.557382,-00000.028764,-00000.135039,-00000.192846
0000000001629,00002.476469,00002.196349,00002.205068,00003.028890,00002.881871,00002.899126,00002.735039,00004.221104,00002.469137,00002.775161,-00000.423252,-00000.110853,-00000.557516,-00000.028832,-00000.135181,-00000.192657
0000000001630,00002.476100,00002.195906,00002.205092,00003.028631,00002.882014,00002.898925,00002.735387,00004.221246,00002.468940,00002.775237,-00000.423172,-00000.110369,-00000.557216,-00000.028478,-00000.134187,-00000.192286
0000000001631,00002.476271,00002.195540,00002.205502,00003.028539,00002.882158,00002.899024,00002.735392,00004.221602,00002.468579,00002.775353,-00000.423078,-00000.109969,-00000.557149,-00000.028354,-00000.133220,-00000.191944
0000000001632,00002.476501,00002.194982,00002.205704,00003.028137,00002.882461,00002.899034,00002.735507,00004.221904,00002.468411,00002.775418,-00000.423191,-00000.109557,-00000.557075,-00000.028234,-00000.132917,-00000.191628
0000000001633,00002.476466,00002.194489,00002.205871,00003.027514,00002.882765,00002.898937,00002.735330,00004.222026,00002.468103,00002.775516,-00000.423292,-00000.109217,-00000.556836,-00000.028128,-00000.132638,-00000.191337
0000000001634,00002.476299,00002.194194,00002.206043,00003.026990,00002.883023,00002.898946,00002.735247,00004.222283,00002.467960,00002.775572,-00000.423207,-00000.108866,-00000.556592,-00000.027845,-00000.132562,-00000.191068
0000000001635,00002.476451,00002.193956,00002.206186,00003.027005,00002.882919,00002.899226,00002.735278,00004.222568,00002.467880,00002.775474,-00000.423293,-00000.108576,-00000.556570,-00000.027755,-00000.132687,-00000.190639
0000000001636,00002.476308,00002.193706,00002.206151,00003.026559,00002.882957,00002.899052,00002.735388,00004.222605,00002.467758,00002.775521,-00000.423221,-00000.108278,-00000.556543,-00000.027695,-00000.132078,-00000.190229
0000000001637,00002.476256,00002.193140,00002.206272,00003.026027,00002.882869,00002.898928,00002.735051,00004.222848,00002.467327,00002.775619,-00000.423294,-00000.108031,-00000.556344,-00000.027437,-00000.131277,-00000.189863
0000000001638,00002.476135,00002.193108,00002.206242,00003.026191,00002.882902,00002.899142,00002.735327,00004.222880,00002.467586,00002.775478,-00000.423414,-00000.107777,-00000.556321,-00000.027205,-00000.130759,-00000.189514
0000000001639,00002.476090,00002.192809,00002.206164,00003.025920,00002.882645,00002.899218,00002.735040,00004.222905,00002.468308,00002.775199,-00000.423658,-00000.107567,-00000.556332,-00000.027167,-00000.130622,-00000.189203
0000000001640,00002.475806,00002.192419,00002.205958,00003.025879,00002.882128,00002.899219,00002.734912,00004.222570,00002.469072,00002.774897,-00000.423760,-00000.107351,-00000.556131,-00000.026969,-00000.130180,-00000.189087
0000000001641,00002.475767,00002.192163,00002.206254,00003.025648,00002.882454,00002.899284,00002.735031,00004.222954,00002.469142,00002.775022,-00000.423786,-00000.107172,-00000.555959,-00000.026755,-00000.128975,-00000.188640
0000000001642,00002.475344,00002.192013,00002.206078,00003.025250,00002.882377,00002.899103,00002.734921,00004.222487,00002.468886,00002.774584,-00000.423873,-00000.106806,-00000.555789,-00000.026586,-00000.128055,-00000.188179
0000000001643,00002.475312,00002.191795,00002.206149,00003.025234,00002.882110,00002.899340,00002.734841,00004.222451,00002.468946,00002.774691,-00000.423713,-00000.106473,-00000.555461,-00000.026223,-00000.127029,-00000.187799
0000000001644,00002.475495,00002.191486,00002.206725,00003.025077,00002.882226,00002.899549,00002.734567,00004.222779,00002.469454,00002.774862,-00000.423787,-00000.106343,-00000.555134,-00000.025898,-00000.126609,-00000.187588
0000000001645,00002.475105,00002.191663,00002.206785,00003.025064,00002.882180,00002.899206,00002.734861,00004.222386,00002.470230,00002.774771,-00000.423833,-00000.106240,-00000.555036,-00000.025589,-00000.126461,-00000.187446
0000000001646,00002.475261,00002.191944,00002.206731,00003.025474,00002.882098,00002.899565,00002.734990,00004.222302,00002.471025,00002.774736,-00000.424077,-00000.106130,-00000.554758,-00000.025312,-00000.126103,-00000.187266
0000000001647,00002.475292,00002.192458,00002.206601,00003.025826,00002.881877,00002.899818,00002.735060,00004.222149,00002.471867,00002.774658,-00000.424298,-00000.106042,-00000.554675,-00000.025230,-00000.125977,-00000.187145
0000000001648,00002.475062,00002.192878,00002.206555,00003.025993,00002.881807,00002.899761,00002.735170,00004.222078,00002.472544,00002.774447,-00000.424325,-00000.105948,-00000.554438,-00000.024995,-00000.125129,-00000.186810
0000000001649,00002.475269,00002.192953,00002.206988,00003.026112,00002.881619,00002.899976,00002.735047,00004.222310,00002.473080,00002.774381,-00000.424331,-00000.105874,-00000.554368,-00000.024925,-00000.124114,-00000.186707
0000000001650,00002.475436,00002.193492,00002.207493,00003.026436,00002.881559,00002.900109,00002.735141,00004.222068,00002.473656,00002.774201,-00000.424353,-00000.105794,-00000.554166,-00000.024906,-00000.123755,-00000.186604
0000000001651,00002.475432,00002.193375,00002.207862,00003.026173,00002.881581,00002.899929,00002.735218,00004.222266,00002.473930,00002.774326,-00000.424540,-00000.105912,-00000.554106,-00000.024847,-00000.123617,-00000.186697
0000000001652,00002.475211,00002.193652,00002.208111,00003.025905,00002.881530,00002.899498,00002.735298,00004.222060,00002.474239,00002.774173,-00000.424741,-00000.106207,-00000.554115,-00000.024830,-00000.123492,-00000.186972
0000000001653,00002.475207,00002.193734,00002.208244,00003.025863,00002.881367,00002.899526,00002.735182,00004.221865,00002.474473,00002.774098,-00000.425081,-00000.106670,-00000.554246,-00000.024780,-00000.123737,-00000.187233
0000000001654,00002.475019,00002.193789,00002.208455,00003.025816,00002.881142,00002.899703,00002.735068,00004.221690,00002.474918,00002.773967,-00000.425433,-00000.107102,-00000.554617,-00000.024766,-00000.123994,-00000.187286
0000000001655,00002.475016,00002.193495,00002.208750,00003.025781,00002.881003,00002.899727,00002.734970,00004.221706,00002.475117,00002.773722,-00000.425905,-00000.107497,-00000.554546,-00000.024723,-00000.124021,-00000.187508
0000000001656,00002.475400,00002.192816,00002.209111,00003.026104,00002.880993,00002.900060,00002.734692,00004.221919,00002.475132,00002.773793,-00000.426567,-00000.108046,-00000.554499,-00000.024711,-00000.124240,-00000.187734
0000000001657,00002.475216,00002.192385,00002.208999,00003.026436,00002.881057,00002.899899,00002.734971,00004.221570,00002.475664,00002.773584,-00000.427331,-00000.108745,-00000.554620,-00000.024856,-00000.124808,-00000.188105
0000000001658,00002.475362,00002.191444,00002.209307,00003.026529,00002.881230,00002.900000,00002.734916,00004.221933,00002.475496,00002.774007,-00000.428439,-00000.109575,-00000.554581,-00000.025027,-00000.125356,-00000.188660
0000000001659,00002.475386,00002.190170,00002.209574,00003.026812,00002.881465,00002.899863,00002.734972,00004.222180,00002.474680,00002.774373,-00000.430541,-00000.110533,-00000.554140,-00000.024969,-00000.125839,-00000.189157
0000000001660,00002.474966,00002.188825,00002.209292,00003.027436,00002.881249,00002.899587,00002.734924,00004.221763,00002.473992,00002.774007,-00000.434024,-00000.111421,-00000.553743,-00000.024571,-00000.126669,-00000.189630
0000000001661,00002.474443,00002.187377,00002.209338,00003.027858,00002.881449,00002.899289,00002.735154,00004.221792,00002.473478,00002.774138,-00000.439078,-00000.112236,-00000.553186,-00000.023977,-00000.127988,-00000.190234
0000000001662,00002.474266,00002.185507,00002.209461,00003.028571,00002.881085,00002.899416,00002.734932,00004.221982,00002.472712,00002.774190,-00000.445308,-00000.113355,-00000.552123,-00000.023275,-00000.129238,-00000.191181
0000000001663,00002.473277,00002.183912,00002.209137,00003.029656,00002.880892,00002.899163,00002.734946,00004.221281,00002.472093,00002.773938,-00000.452695,-00000.114593,-00000.550923,-00000.022407,-00000.130724,-00000.192421
0000000001664,00002.472401,00002.181594,00002.209060,00003.030625,00002.880582,00002.899090,00002.734757,00004.221442,00002.471259,00002.774163,-00000.461445,-00000.115909,-00000.549474,-00000.021628,-00000.132877,-00000.193771
0000000001665,00002.470833,00002.178785,00002.208785,00003.031730,00002.880055,00002.899055,00002.734225,00004.221390,00002.470370,00002.773949,-00000.471724,-00000.117325,-00000.548453,-00000.020708,-00000.135955,-00000.195371
0000000001666,00002.468999,00002.175723,00002.208538,00003.032374,00002.879791,00002.898630,00002.733701,00004.221527,00002.469478,00002.774141,-00000.483526,-00000.118627,-00000.547219,-00000.019863,-00000.139783,-00000.197427
0000000001667,00002.467120,00002.173332,00002.208303,00003.033315,00002.879705,00002.898238,00002.733611,00004.221664,00002.469084,00002.774321,-00000.495723,-00000.120195,-00000.546168,-00000.019080,-00000.143129,-00000.199515
0000000001668,00002.465015,00002.170725,00002.207912,00003.034588,00002.879299,00002.898421,00002.733165,00004.221962,00002.468506,00002.774484,-00000.509217,-00000.121847,-00000.545299,-00000.017998,-00000.146207,-00000.201628
0000000001669,00002.462689,00002.167782,00002.207531,00003.035571,00002.879045,00002.898087,00002.732544,00004.222260,00002.467626,00002.774638,-00000.523954,-00000.123546,-00000.544404,-00000.017150,-00000.149781,-00000.203768
0000000001670,00002.460353,00002.165019,00002.207016,00003.037199,00002.878880,00002.897517,00002.732165,00004.222514,00002.466772,00002.774777,-00000.539069,-00000.125133,-00000.543665,-00000.016410,-00000.153489,-00000.206293
0000000001671,00002.458192,00002.162514,00002.206510,00003.039124,00002.878845,00002.897232,00002.731636,00004.222767,00002.466023,00002.775089,-00000.554517,-00000.126761,-00000.542903,-00000.015869,-00000.156895,-00000.208659
0000000001672,00002.455840,00002.160162,00002.205709,00003.041054,00002.878342,00002.896928,00002.730950,00004.222439,00002.465296,00002.774845,-00000.569924,-00000.128112,-00000.542455,-00000.015421,-00000.159870,-00000.210445
0000000001673,00002.450373,00002.157304,00002.205097,00003.042330,00002.877768,00002.896686,00002.730137,00004.222836,00002.464295,00002.774929,-00000.585615,-00000.129316,-00000.542169,-00000.015142,-00000.162044,-00000.211190
0000000001674,00002.444017,00002.154213,00002.204234,00003.043066,00002.877158,00002.896065,00002.729553,00004.223101,00002.463132,00002.775084,-00000.601089,-00000.130830,-00000.542150,-00000.014942,-00000.163670,-00000.211441
0000000001675,00002.438274,00002.150873,00002.203350,00003.044152,00002.875944,00002.895677,00002.728680,00004.223076,00002.461917,00002.774974,-00000.615716,-00000.132036,-00000.541726,-00000.014704,-00000.164795,-00000.211530
0000000001676,00002.432501,00002.147697,00002.202796,00003.044598,00002.875425,00002.895148,00002.728002,00004.223302,00002.460745,00002.775106,-00000.629252,-00000.132780,-00000.541347,-00000.014171,-00000.165090,-00000.211200
0000000001677,00002.427068,00002.144854,00002.202044,00003.044978,00002.874936,00002.894637,00002.727621,00004.223462,00002.459530,00002.775194,-00000.641704,-00000.133263,-00000.540986,-00000.013788,-00000.164778,-00000.210369
0000000001678,00002.421609,00002.141788,00002.200847,00003.045539,00002.874131,00002.894005,00002.727043,00004.223292,00002.458351,00002.775124,-00000.653590,-00000.133896,-00000.540482,-00000.013152,-00000.163942,-00000.208999
0000000001679,00002.416440,00002.137191,00002.200025,00003.045500,00002.873170,00002.893026,00002.725994,00004.222884,00002.456409,00002.774837,-00000.664916,-00000.134307,-00000.539993,-00000.012282,-00000.162587,-00000.207022
0000000001680,00002.411248,00002.132767,00002.199007,00003.045614,00002.872123,00002.892306,00002.725139,00004.222739,00002.455043,00002.774778,-00000.676304,-00000.135209,-00000.539745,-00000.011741,-00000.161512,-00000.204768
0000000001681,00002.406666,00002.128309,00002.197944,00003.045581,00002.870942,00002.891836,00002.723883,00004.222573,00002.453390,00002.774533,-00000.687397,-00000.135740,-00000.539510,-00000.011181,-00000.160722,-00000.202722
0000000001682,00002.402428,00002.124180,00002.197258,00003.045315,00002.869687,00002.891586,00002.722974,00004.222631,00002.451864,00002.774120,-00000.697999,-00000.136146,-00000.539300,-00000.010539,-00000.158900,-00000.201165
0000000001683,00002.398527,00002.120203,00002.196535,00003.045106,00002.868501,00002.891185,00002.721904,00004.222671,00002.450457,00002.773730,-00000.708168,-00000.136416,-00000.539281,-00000.009881,-00000.157321,-00000.199424
0000000001684,00002.394738,00002.116325,00002.196133,00003.044517,00002.867795,00002.890610,00002.720768,00004.223083,00002.448795,00002.773741,-00000.717556,-00000.136580,-00000.539464,-00000.009153,-00000.156132,-00000.197192
0000000001685,00002.391054,00002.112940,00002.195698,00003.043976,00002.867329,00002.889543,00002.720039,00004.223480,00002.447053,00002.773772,-00000.726576,-00000.136811,-00000.539086,-00000.008230,-00000.154244,-00000.194802
0000000001686,00002.387466,00002.109276,00002.194993,00003.043293,00002.866366,00002.888328,00002.719071,00004.223286,00002.445094,00002.773600,-00000.735475,-00000.137313,-00000.538879,-00000.007429,-00000.152506,-00000.192176
0000000001687,00002.383967,00002.106394,00002.194079,00003.042832,00002.865425,00002.887601,00002.718269,00004.223262,00002.443611,00002.773082,-00000.744060,-00000.137690,-00000.538557,-00000.006644,-00000.151261,-00000.189417
0000000001688,00002.380550,00002.103819,00002.193116,00003.042433,00002.864787,00002.886566,00002.717627,00004.223097,00002.442306,00002.772573,-00000.752362,-00000.137755,-00000.538199,-00000.005962,-00000.150327,-00000.186819
0000000001689,00002.377571,00002.101548,00002.192519,00003.041678,00002.864167,00002.885585,00002.717126,00004.222895,00002.440862,00002.772313,-00000.760215,-00000.137895,-00000.537925,-00000.005293,-00000.149266,-00000.184832
0000000001690,00002.374843,00002.098993,00002.191881,00003.041156,00002.862535,00002.885067,00002.716216,00004.222754,00002.439389,00002.772061,-00000.767645,-00000.138313,-00000.537802,-00000.004894,-00000.148471,-00000.182983
0000000001691,00002.372126,00002.096877,00002.191373,00003.040332,00002.861463,00002.884050,00002.715789,00004.222945,00002.438159,00002.772022,-00000.774874,-00000.138976,-00000.537931,-00000.004506,-00000.147206,-00000.180929
0000000001692,00002.369078,00002.094702,00002.190466,00003.039525,00002.859893,00002.882520,00002.715378,00004.222825,00002.436724,00002.771444,-00000.782287,-00000.139694,-00000.538371,-00000.004348,-00000.145984,-00000.178448
0000000001693,00002.366403,00002.092176,00002.189671,00003.038642,00002.857529,00002.881473,00002.714470,00004.222806,00002.435314,00002.770685,-00000.789893,-00000.139897,-00000.538662,-00000.004199,-00000.144907,-00000.176155
0000000001694,00002.363626,00002.090143,00002.188718,00003.037774,00002.855467,00002.880171,00002.713757,00004.222342,00002.433911,00002.769831,-00000.797111,-00000.140327,-00000.538855,-00000.004064,-00000.143867,-00000.174406
0000000001695,00002.361349,00002.088174,00002.187860,00003.036841,00002.853636,00002.879099,00002.713347,00004.222507,00002.432530,00002.769366,-00000.803767,-00000.140861,-00000.538741,-00000.003756,-00000.142406,-00000.172998
0000000001696,00002.358804,00002.086262,00002.186867,00003.035920,00002.851880,00002.877809,00002.712922,00004.222474,00002.431335,00002.769001,-00000.809911,-00000.141046,-00000.538723,-00000.003460,-00000.141158,-00000.171691
0000000001697,00002.356502,00002.084766,00002.185774,00003.035307,00002.850140,00002.876896,00002.712391,00004.222252,00002.430340,00002.768424,-00000.815759,-00000.141320,-00000.538807,-00000.003197,-00000.140277,-00000.170311
0000000001698,00002.354517,00002.083320,00002.184928,00003.033798,00002.848101,00002.875979,00002.712029,00004.222224,00002.429142,00002.767751,-00000.822441,-00000.141296,-00000.538430,-00000.003127,-00000.139214,-00000.168653
0000000001699,00002.352739,00002.081503,00002.184179,00003.031825,00002.844987,00002.875020,00002.711215,00004.222398,00002.427388,00002.767260,-00000.829778,-00000.141529,-00000.538501,-00000.003266,-00000.137376,-00000.167116
0000000001700,00002.350505,00002.079728,00002.183641,00003.029814,00002.842344,00002.874240,00002.710181,00004.222737,00002.425461,00002.766868,-00000.837099,-00000.141509,-00000.538724,-00000.003750,-00000.135746,-00000.164979
0000000001701,00002.347721,00002.078362,00002.182640,00003.028135,00002.839331,00002.873242,00002.709125,00004.222340,00002.423787,00002.765906,-00000.844795,-00000.141344,-00000.538966,-00000.004232,-00000.134181,-00000.162582
0000000001702,00002.344912,00002.076851,00002.181819,00003.026242,00002.836718,00002.872034,00002.708244,00004.222629,00002.421964,00002.765572,-00000.852297,-00000.141146,-00000.539156,-00000.004825,-00000.132793,-00000.160582
0000000001703,00002.342180,00002.075507,00002.181149,00003.024449,00002.834334,00002.870822,00002.707527,00004.222836,00002.420176,00002.765297,-00000.859756,-00000.141006,-00000.539180,-00000.005416,-00000.131461,-00000.159085
0000000001704,00002.339789,00002.074402,00002.180450,00003.023201,00002.831385,00002.870156,00002.706596,00004.222900,00002.418625,00002.764469,-00000.866869,-00000.140836,-00000.538979,-00000.005921,-00000.129917,-00000.158108
0000000001705,00002.336919,00002.073439,00002.179335,00003.021493,00002.828448,00002.869305,00002.705622,00004.222713,00002.417103,00002.763328,-00000.873944,-00000.140173,-00000.539000,-00000.006606,-00000.127875,-00000.156653
0000000001706,00002.333795,00002.072135,00002.178377,00003.019161,00002.825574,00002.868013,00002.704467,00004.222405,00002.415420,00002.762260,-00000.880724,-00000.139304,-00000.539191,-00000.007399,-00000.125110,-00000.154551
0000000001707,00002.331170,00002.070953,00002.177609,00003.016800,00002.823256,00002.866926,00002.703457,00004.222790,00002.413580,00002.761470,-00000.887473,-00000.138739,-00000.539391,-00000.008345,-00000.122828,-00000.152224
0000000001708,00002.328692,00002.069843,00002.176794,00003.014633,00002.820991,00002.866007,00002.702655,00004.222710,00002.412147,00002.760380,-00000.894515,-00000.138180,-00000.539372,-00000.009201,-00000.120111,-00000.150072
0000000001709,00002.326457,00002.068837,00002.175778,00003.012260,00002.818836,00002.864900,00002.701795,00004.222312,00002.410762,00002.759526,-00000.901530,-00000.137699,-00000.538998,-00000.009825,-00000.118531,-00000.148272
0000000001710,00002.324710,00002.067892,00002.175083,00003.010597,00002.816545,00002.864300,00002.700750,00004.222425,00002.409360,00002.758598,-00000.910971,-00000.138493,-00000.540796,-00000.012186,-00000.121841,-00000.148073
0000000001711,00002.322264,00002.066673,00002.173855,00003.008759,00002.813622,00002.863357,00002.699110,00004.222086,00002.408000,00002.757689,-00000.918032,-00000.138084,-00000.541021,-00000.013262,-00000.121766,-00000.146359
0000000001712,00002.319507,00002.065324,00002.173083,00003.006436,00002.809313,00002.862302,00002.697495,00004.222182,00002.406081,00002.755992,-00000.924436,-00000.137309,-00000.540376,-00000.013458,-00000.117872,-00000.144012
0000000001713,00002.317787,00002.064104,00002.172582,00003.004689,00002.806643,00002.861681,00002.696825,00004.222438,00002.404016,00002.754856,-00000.932079,-00000.138049,-00000.540749,-00000.014373,-00000.115450,-00000.142372
0000000001714,00002.315803,00002.062956,00002.171743,00003.002712,00002.805152,00002.860601,00002.696175,00004.222338,00002.402202,00002.753955,-00000.939346,-00000.139021,-00000.541106,-00000.015629,-00000.113587,-00000.140012
0000000001715,00002.313976,00002.062462,00002.170772,00003.001225,00002.803605,00002.859710,00002.695605,00004.221830,00002.400625,00002.752625,-00000.945671,-00000.139651,-00000.541061,-00000.016408,-00000.110980,-00000.137346
0000000001716,00002.313013,00002.062029,00002.170421,00002.999723,00002.802517,00002.859335,00002.695052,00004.222108,00002.398899,00002.751859,-00000.952401,-00000.141205,-00000.541728,-00000.017477,-00000.109575,-00000.135336
0000000001717,00002.312183,00002.061790,00002.170138,00002.998276,00002.801744,00002.858758,00002.694748,00004.222583,00002.397557,00002.751452,-00000.958692,-00000.143918,-00000.542596,-00000.019047,-00000.110078,-00000.134155
0000000001718,00002.311182,00002.061784,00002.169839,00002.996997,00002.801362,00002.858257,00002.694640,00004.222820,00002.396087,00002.750981,-00000.964240,-00000.147054,-00000.542983,-00000.019595,-00000.109063,-00000.132989
0000000001719,00002.310294,00002.061581,00002.169236,00002.995765,00002.800160,00002.857947,00002.694018,00004.222861,00002.394763,00002.750090,-00000.969596,-00000.151359,-00000.543722,-00000.020024,-00000.107314,-00000.131802
0000000001720,00002.309441,00002.061576,00002.168437,00002.994677,00002.799472,00002.857157,00002.693745,00004.222518,00002.393693,00002.749508,-00000.973956,-00000.156387,-00000.544414,-00000.020672,-00000.105724,-00000.130265
0000000001721,00002.308686,00002.061584,00002.167743,00002.993084,00002.798993,00002.856349,00002.693760,00004.222553,00002.392566,00002.749294,-00000.978153,-00000.162410,-00000.545225,-00000.021400,-00000.105142,-00000.128891
0000000001722,00002.308323,00002.061579,00002.167244,00002.991613,00002.798770,00002.855859,00002.693527,00004.222624,00002.391293,00002.749161,-00000.981684,-00000.168505,-00000.545813,-00000.021770,-00000.104334,-00000.127583
0000000001723,00002.308223,00002.061586,00002.166652,00002.990982,00002.798180,00002.855715,00002.693358,00004.222654,00002.390152,00002.748435,-00000.985619,-00000.174358,-00000.546322,-00000.022027,-00000.103475,-00000.126051
0000000001724,00002.307552,00002.061220,00002.165684,00002.989730,00002.797446,00002.854935,00002.692979,00004.222533,00002.388705,00002.747959,-00000.990983,-00000.180272,-00000.546098,-00000.021435,-00000.101336,-00000.124211
0000000001725,00002.306923,00002.061044,00002.164999,00002.989194,00002.796763,00002.854631,00002.692654,00004.222377,00002.387553,00002.747340,-00000.998505,-00000.186706,-00000.545806,-00000.020566,-00000.098610,-00000.122907
0000000001726,00002.306532,00002.060732,00002.164718,00002.988490,00002.796320,00002.854511,00002.692331,00004.222637,00002.386321,00002.747116,-00001.007424,-00000.192828,-00000.545615,-00000.019880,-00000.096969,-00000.122611
0000000001727,00002.306179,00002.060764,00002.164498,00002.987852,00002.795920,00002.854252,00002.692235,00004.222686,00002.385158,00002.747134,-00001.017093,-00000.198850,-00000.545910,-00000.019684,-00000.096644,-00000.122952
0000000001728,00002.305846,00002.060861,00002.164259,00002.987253,00002.795724,00002.853969,00002.692686,00004.222907,00002.384291,00002.747125,-00001.025956,-00000.204243,-00000.546292,-00000.019645,-00000.096880,-00000.122881
0000000001729,00002.305182,00002.061070,00002.163709,00002.986710,00002.795383,00002.853567,00002.693149,00004.222586,00002.383664,00002.746778,-00001.034369,-00000.209188,-00000.547087,-00000.020023,-00000.097148,-00000.122264
0000000001730,00002.304536,00002.061334,00002.163324,00002.986382,00002.795035,00002.853144,00002.693351,00004.222411,00002.383107,00002.746226,-00001.043184,-00000.214142,-00000.547956,-00000.019989,-00000.097167,-00000.121297
0000000001731,00002.304153,00002.061149,00002.163219,00002.985738,00002.794745,00002.852984,00002.693201,00004.222682,00002.382211,00002.745930,-00001.052704,-00000.219077,-00000.548271,-00000.019585,-00000.096306,-00000.120591
0000000001732,00002.303603,00002.061011,00002.163254,00002.985096,00002.794448,00002.852805,00002.693010,00004.222896,00002.381193,00002.745641,-00001.062203,-00000.224021,-00000.548285,-00000.019193,-00000.094691,-00000.120312
0000000001733,00002.302732,00002.061398,00002.162983,00002.984910,00002.794020,00002.852306,00002.693246,00004.222582,00002.380430,00002.745208,-00001.071577,-00000.228585,-00000.548553,-00000.019212,-00000.093414,-00000.120617
0000000001734,00002.302264,00002.061643,00002.162650,00002.984908,00002.793405,00002.852154,00002.693265,00004.222221,00002.379926,00002.744599,-00001.080027,-00000.232249,-00000.548928,-00000.019242,-00000.092764,-00000.121286
0000000001735,00002.301885,00002.061972,00002.162419,00002.984750,00002.793040,00002.852092,00002.693283,00004.221953,00002.379276,00002.744049,-00001.088188,-00000.235771,-00000.549337,-00000.019258,-00000.092765,-00000.122091
0000000001736,00002.300943,00002.062181,00002.161954,00002.984385,00002.792516,00002.851600,00002.693300,00004.221464,00002.378484,00002.743531,-00001.098828,-00000.239434,-00000.549293,-00000.019101,-00000.093300,-00000.123386
0000000001737,00002.300076,00002.061917,00002.161758,00002.984069,00002.791662,00002.851184,00002.693134,00004.221237,00002.377749,00002.742881,-00001.109585,-00000.241889,-00000.549460,-00000.018934,-00000.093120,-00000.123527
0000000001738,00002.299636,00002.061732,00002.161725,00002.983940,00002.791035,00002.851309,00002.692967,00004.221183,00002.377075,00002.742622,-00001.119187,-00000.243738,-00000.549423,-00000.018982,-00000.092850,-00000.123360
0000000001739,00002.298899,00002.061688,00002.161557,00002.983853,00002.790670,00002.851318,00002.693189,00004.221352,00002.376632,00002.742431,-00001.127619,-00000.244739,-00000.549565,-00000.019020,-00000.092515,-00000.122754
0000000001740,00002.298706,00002.061531,00002.161530,00002.983561,00002.790317,00002.851424,00002.693227,00004.221850,00002.376058,00002.742392,-00001.134886,-00000.245224,-00000.549352,-00000.018880,-00000.091741,-00000.122067
0000000001741,00002.298078,00002.061675,00002.161206,00002.983305,00002.790188,00002.851069,00002.693598,00004.221813,00002.375861,00002.742230,-00001.142245,-00000.245895,-00000.548929,-00000.018732,-00000.091274,-00000.121733
0000000001742,00002.297551,00002.061541,00002.161182,00002.982876,00002.790251,00002.850978,00002.693631,00004.222056,00002.375373,00002.742377,-00001.149883,-00000.246671,-00000.548566,-00000.018612,-00000.091522,-00000.121330
0000000001743,00002.297016,00002.061664,00002.161087,00002.982839,00002.790141,00002.851039,00002.693765,00004.222205,00002.375024,00002.742239,-00001.157599,-00000.247787,-00000.548206,-00000.018486,-00000.091851,-00000.121045
0000000001744,00002.296568,00002.061732,00002.160704,00002.982837,00002.790013,00002.850961,00002.693974,00004.221868,00002.374789,00002.742002,-00001.164464,-00000.248629,-00000.547897,-00000.018566,-00000.092243,-00000.120884
0000000001745,00002.296113,00002.061836,00002.160443,00002.982443,00002.789919,00002.850831,00002.694088,00004.221814,00002.374311,00002.741885,-00001.170307,-00000.249034,-00000.547954,-00000.018639,-00000.092886,-00000.120823
0000000001746,00002.295731,00002.062075,00002.160298,00002.982622,00002.789992,00002.850947,00002.694629,00004.221889,00002.374293,00002.741865,-00001.175788,-00000.249751,-00000.548054,-00000.018526,-00000.093764,-00000.121411
0000000001747,00002.295162,00002.061983,00002.160075,00002.982468,00002.789731,00002.850655,00002.694726,00004.221662,00002.374067,00002.741765,-00001.181488,-00000.251184,-00000.547739,-00000.018226,-00000.094855,-00000.122991
0000000001748,00002.294474,00002.062005,00002.159771,00002.982076,00002.789611,00002.850391,00002.694824,00004.221545,00002.373689,00002.741566,-00001.187787,-00000.253427,-00000.547461,-00000.017766,-00000.095421,-00000.124943
0000000001749,00002.294171,00002.061745,00002.159944,00002.981764,00002.789752,00002.850323,00002.694907,00004.222077,00002.373134,00002.741662,-00001.193546,-00000.255554,-00000.547193,-00000.017330,-00000.095806,-00000.126652
0000000001750,00002.293948,00002.061582,00002.160047,00002.981430,00002.790194,00002.850461,00002.695171,00004.222521,00002.372812,00002.741674,-00001.198001,-00000.257101,-00000.546956,-00000.016939,-00000.095744,-00000.128132
0000000001751,00002.293509,00002.061542,00002.159832,00002.981164,00002.790313,00002.850404,00002.695242,00004.222430,00002.372702,00002.741393,-00001.201272,-00000.258186,-00000.546909,-00000.016748,-00000.095890,-00000.129405
0000000001752,00002.293501,00002.061585,00002.159739,00002.981243,00002.790146,00002.850884,00002.695286,00004.222446,00002.372428,00002.741222,-00001.203795,-00000.258959,-00000.546889,-00000.016778,-00000.096019,-00000.130665
0000000001753,00002.293127,00002.061551,00002.159374,00002.981198,00002.790248,00002.850835,00002.695345,00004.222187,00002.372154,00002.740983,-00001.206397,-00000.259701,-00000.546850,-00000.016797,-00000.096324,-00000.132111
0000000001754,00002.293120,00002.061406,00002.159295,00002.981447,00002.790286,00002.851062,00002.695201,00004.222381,00002.371920,00002.740838,-00001.208908,-00000.260359,-00000.546833,-00000.016641,-00000.096434,-00000.133365
0000000001755,00002.292802,00002.061558,00002.159347,00002.981590,00002.790736,00002.851384,00002.695615,00004.222523,00002.372049,00002.740634,-00001.211124,-00000.260809,-00000.546799,-00000.016476,-00000.096513,-00000.134597
0000000001756,00002.292614,00002.061435,00002.159461,00002.981439,00002.791131,00002.851396,00002.695855,00004.222871,00002.371850,00002.740692,-00001.213261,-00000.261369,-00000.546603,-00000.016343,-00000.096424,-00000.135846
0000000001757,00002.292343,00002.061020,00002.159687,00002.981198,00002.791695,00002.851669,00002.696026,00004.223173,00002.371960,00002.740881,-00001.215691,-00000.262297,-00000.546211,-00000.016022,-00000.096854,-00000.137438
0000000001758,00002.292002,00002.060734,00002.159783,00002.981069,00002.792214,00002.851680,00002.696231,00004.223469,00002.371610,00002.740930,-00001.217873,-00000.262955,-00000.545500,-00000.015546,-00000.097323,-00000.139227
0000000001759,00002.291409,00002.060562,00002.159613,00002.981045,00002.792331,00002.851550,00002.696376,00004.223363,00002.371522,00002.740547,-00001.219942,-00000.263201,-00000.544985,-00000.015272,-00000.098052,-00000.141308
0000000001760,00002.291300,00002.060500,00002.159333,00002.981480,00002.792409,00002.851740,00002.696550,00004.222889,00002.371586,00002.740226,-00001.221618,-00000.263035,-00000.544562,-00000.014867,-00000.099177,-00000.143557
0000000001761,00002.291339,00002.060535,00002.159187,00002.981822,00002.792872,00002.851992,00002.696855,00004.222800,00002.371693,00002.740263,-00001.223017,-00000.262882,-00000.544123,-00000.014633,-00000.099979,-00000.145510
0000000001762,00002.291428,00002.060301,00002.159130,00002.981830,00002.793120,00002.852154,00002.696822,00004.222940,00002.371385,00002.740171,-00001.223900,-00000.262559,-00000.543944,-00000.014470,-00000.100574,-00000.146698
0000000001763,00002.291642,00002.059787,00002.159188,00002.981396,00002.793333,00002.852187,00002.696538,00004.223227,00002.370931,00002.740384,-00001.224365,-00000.262247,-00000.543752,-00000.014271,-00000.100893,-00000.147454
0000000001764,00002.291173,00002.059769,00002.158958,00002.981220,00002.793544,00002.851962,00002.696691,00004.222802,00002.371032,00002.740124,-00001.224028,-00000.261610,-00000.543781,-00000.014132,-00000.101037,-00000.147922
0000000001765,00002.291356,00002.059694,00002.159007,00002.981395,00002.793544,00002.852172,00002.696449,00004.222865,00002.370827,00002.739942,-00001.222791,-00000.260619,-00000.543980,-00000.013782,-00000.100947,-00000.148202
0000000001766,00002.291320,00002.059678,00002.158993,00002.981064,00002.793905,00002.851980,00002.696761,00004.222685,00002.370913,00002.739903,-00001.221235,-00000.260258,-00000.543824,-00000.013482,-00000.101069,-00000.148600
0000000001767,00002.291113,00002.059433,00002.158853,00002.980669,00002.794086,00002.851796,00002.696917,00004.222557,00002.370738,00002.739930,-00001.219638,-00000.260321,-00000.543812,-00000.013184,-00000.101173,-00000.149202
0000000001768,00002.291082,00002.058876,00002.159022,00002.980388,00002.794212,00002.851815,00002.696820,00004.222766,00002.370630,00002.740077,-00001.218131,-00000.260920,-00000.543860,-00000.012928,-00000.101277,-00000.149722
0000000001769,00002.290905,00002.058486,00002.159266,00002.980051,00002.794547,00002.851839,00002.696591,00004.223020,00002.370482,00002.740281,-00001.216409,-00000.261518,-00000.544213,-00000.012674,-00000.101366,-00000.150053
0000000001770,00002.291242,00002.058374,00002.159047,00002.980356,00002.794292,00002.852217,00002.696508,00004.222835,00002.370389,00002.740407,-00001.214220,-00000.261666,-00000.544435,-00000.012457,-00000.101273,-00000.149952
0000000001771,00002.291273,00002.058042,00002.159074,00002.980069,00002.794396,00002.852057,00002.696675,00004.223051,00002.370082,00002.740581,-00001.211121,-00000.261449,-00000.544735,-00000.012241,-00000.101167,-00000.149689
0000000001772,00002.291016,00002.057947,00002.158706,00002.979965,00002.794360,00002.852016,00002.697149,00004.222713,00002.370184,00002.740144,-00001.207806,-00000.261212,-00000.545287,-00000.012237,-00000.101088,-00000.149421
0000000001773,00002.291223,00002.057664,00002.158728,00002.979903,00002.794630,00002.852061,00002.697291,00004.223078,00002.370104,00002.740110,-00001.204442,-00000.261391,-00000.545724,-00000.012235,-00000.100817,-00000.149198
0000000001774,00002.291367,00002.057220,00002.158597,00002.979633,00002.794781,00002.852208,00002.697150,00004.223334,00002.370010,00002.740101,-00001.201076,-00000.261552,-00000.546376,-00000.012232,-00000.100568,-00000.148970
0000000001775,00002.291303,00002.057146,00002.157778,00002.978988,00002.795139,00002.852008,00002.697152,00004.223319,00002.369861,00002.740064,-00001.193351,-00000.262566,-00000.547665,-00000.012771,-00000.100125,-00000.149130
0000000001776,00002.291300,00002.057069,00002.157331,00002.978970,00002.794818,00002.852068,00002.696892,00004.222939,00002.369776,00002.739677,-00001.189416,-00000.263394,-00000.548318,-00000.013105,-00000.100318,-00000.149875
0000000001777,00002.291790,00002.056654,00002.157064,00002.979148,00002.794626,00002.852614,00002.696388,00004.222983,00002.369662,00002.739522,-00001.180523,-00000.264497,-00000.549681,-00000.013333,-00000.101001,-00000.150989
0000000001778,00002.291357,00002.056331,00002.156098,00002.978797,00002.793971,00002.852002,00002.696146,00004.222052,00002.369446,00002.738972,-00001.175978,-00000.264783,-00000.550550,-00000.013439,-00000.101107,-00000.150826
0000000001779,00002.291482,00002.056120,00002.156110,00002.978757,00002.794282,00002.852173,00002.696321,00004.222476,00002.369384,00002.739209,-00001.171864,-00000.265437,-00000.551386,-00000.013346,-00000.101401,-00000.150486
0000000001780,00002.291039,00002.055303,00002.155480,00002.978423,00002.794170,00002.851978,00002.696083,00004.222407,00002.369147,00002.739124,-00001.164493,-00000.266599,-00000.553019,-00000.013175,-00000.101197,-00000.148243
0000000001781,00002.290671,00002.055276,00002.155244,00002.978322,00002.794367,00002.851817,00002.696298,00004.222532,00002.369199,00002.739034,-00001.161589,-00000.267323,-00000.553621,-00000.013098,-00000.100729,-00000.146601
0000000001782,00002.290892,00002.054766,00002.155105,00002.978597,00002.794242,00002.852401,00002.696245,00004.222817,00002.368990,00002.738975,-00001.155745,-00000.268568,-00000.554559,-00000.012601,-00000.098993,-00000.144755
0000000001783,00002.290718,00002.054694,00002.154806,00002.979013,00002.793774,00002.852535,00002.695836,00004.222153,00002.368993,00002.738380,-00001.151678,-00000.270353,-00000.555176,-00000.012542,-00000.098422,-00000.145541
0000000001784,00002.290325,00002.054267,00002.154951,00002.978757,00002.793721,00002.852123,00002.695824,00004.222179,00002.368759,00002.738057,-00001.150899,-00000.271688,-00000.555460,-00000.012697,-00000.098182,-00000.146000
0000000001785,00002.290053,00002.053362,00002.155400,00002.978605,00002.793511,00002.852299,00002.695478,00004.222335,00002.368434,00002.737417,-00001.149184,-00000.273372,-00000.556306,-00000.013348,-00000.097731,-00000.145332
0000000001786,00002.289771,00002.053083,00002.155315,00002.978143,00002.793344,00002.851921,00002.695529,00004.222269,00002.368326,00002.737262,-00001.148054,-00000.273757,-00000.556846,-00000.013636,-00000.097521,-00000.144840
0000000001787,00002.289763,00002.052898,00002.154621,00002.978264,00002.792827,00002.851945,00002.695227,00004.221505,00002.368247,00002.736378,-00001.148033,-00000.275133,-00000.557667,-00000.014329,-00000.097169,-00000.145251
0000000001788,00002.289471,00002.052399,00002.154973,00002.977874,00002.792845,00002.851777,00002.695451,00004.221810,00002.368076,00002.736409,-00001.149230,-00000.276288,-00000.557947,-00000.014556,-00000.097229,-00000.146482
0000000001789,00002.289145,00002.051954,00002.155419,00002.977490,00002.792947,00002.851641,00002.695524,00004.222203,00002.368033,00002.736378,-00001.151755,-00000.277288,-00000.558060,-00000.015113,-00000.098190,-00000.149007
0000000001790,00002.288925,00002.051990,00002.155362,00002.977110,00002.793021,00002.851312,00002.695578,00004.222135,00002.367940,00002.736328,-00001.152310,-00000.276442,-00000.558107,-00000.015268,-00000.098501,-00000.150111
0000000001791,00002.288680,00002.051786,00002.155025,00002.976658,00002.792552,00002.851245,00002.695269,00004.222298,00002.367736,00002.735945,-00001.154377,-00000.274154,-00000.557289,-00000.014993,-00000.098003,-00000.152822
0000000001792,00002.288242,00002.051768,00002.154933,00002.976550,00002.792644,00002.851065,00002.695511,00004.222332,00002.367812,00002.735837,-00001.155479,-00000.272947,-00000.557022,-00000.014774,-00000.097427,-00000.153840
0000000001793,00002.287917,00002.051779,00002.154478,00002.976363,00002.791869,00002.851035,00002.695030,00004.222103,00002.367809,00002.735165,-00001.156530,-00000.270634,-00000.556909,-00000.014754,-00000.095637,-00000.155634
0000000001794,00002.287596,00002.051829,00002.154284,00002.976255,00002.791633,00002.850932,00002.695299,00004.221984,00002.367933,00002.734798,-00001.157479,-00000.270266,-00000.557243,-00000.014559,-00000.095565,-00000.156786
0000000001795,00002.287097,00002.051789,00002.154090,00002.975659,00002.791572,00002.850647,00002.695347,00004.221908,00002.367807,00002.734593,-00001.158876,-00000.270661,-00000.557358,-00000.014374,-00000.095565,-00000.158431
0000000001796,00002.286761,00002.051797,00002.153942,00002.975242,00002.791319,00002.850861,00002.695072,00004.221924,00002.367804,00002.734287,-00001.162506,-00000.270684,-00000.557377,-00000.014413,-00000.096410,-00000.161175
0000000001797,00002.286294,00002.051622,00002.153453,00002.974705,00002.790741,00002.851043,00002.695020,00004.221937,00002.367621,00002.734027,-00001.165958,-00000.269796,-00000.557393,-00000.014447,-00000.096767,-00000.162059
0000000001798,00002.286300,00002.051629,00002.153565,00002.974276,00002.790853,00002.851084,00002.694873,00004.222458,00002.367335,00002.734163,-00001.167125,-00000.268774,-00000.557676,-00000.014458,-00000.096986,-00000.161771
0000000001799,00002.286083,00002.051298,00002.152587,00002.974065,00002.789982,00002.851051,00002.694487,00004.222210,00002.367040,00002.733377,-00001.168258,-00000.265631,-00000.558192,-00000.014304,-00000.097620,-00000.161297
0000000001800,00002.285477,00002.051374,00002.151929,00002.974068,00002.789648,00002.850967,00002.694628,00004.221877,00002.367023,00002.732891,-00001.168660,-00000.264132,-00000.558245,-00000.014137,-00000.099325,-00000.162037
0000000001801,00002.281210,00002.050899,00002.151195,00002.973706,00002.789137,00002.850952,00002.694279,00004.221715,00002.366775,00002.732475,-00001.169927,-00000.261860,-00000.557951,-00000.013123,-00000.103965,-00000.164244
0000000001802,00002.279252,00002.050568,00002.151101,00002.973731,00002.788944,00002.851208,00002.694189,00004.222082,00002.366729,00002.732346,-00001.170797,-00000.260886,-00000.557608,-00000.012690,-00000.106297,-00000.164916
0000000001803,00002.275548,00002.049850,00002.150127,00002.972875,00002.788900,00002.851157,00002.693723,00004.222435,00002.366162,00002.732375,-00001.172654,-00000.258371,-00000.556864,-00000.011528,-00000.109900,-00000.165063
0000000001804,00002.273632,00002.049453,00002.149857,00002.972618,00002.789003,00002.851082,00002.693883,00004.222623,00002.366202,00002.732492,-00001.174049,-00000.256883,-00000.556271,-00000.010827,-00000.111613,-00000.165165
0000000001805,00002.270220,00002.049445,00002.148887,00002.972653,00002.788769,00002.851050,00002.694008,00004.222170,00002.366438,00002.731773,-00001.175966,-00000.254057,-00000.555363,-00000.009761,-00000.114063,-00000.164912
0000000001806,00002.269220,00002.049082,00002.148593,00002.972352,00002.788858,00002.851104,00002.693843,00004.222527,00002.366275,00002.731929,-00001.176716,-00000.253274,-00000.555047,-00000.009389,-00000.115605,-00000.164596
0000000001807,00002.266826,00002.048767,00002.147811,00002.972245,00002.788465,00002.851068,00002.693611,00004.222269,00002.366319,00002.731475,-00001.178237,-00000.254068,-00000.554866,-00000.008900,-00000.117824,-00000.164065
0000000001808,00002.265876,00002.048580,00002.147358,00002.972399,00002.788401,00002.851362,00002.693351,00004.222308,00002.366320,00002.731466,-00001.177873,-00000.254412,-00000.554967,-00000.008599,-00000.118541,-00000.163479
0000000001809,00002.264161,00002.048158,00002.146759,00002.972104,00002.788075,00002.851106,00002.693191,00004.222264,00002.366358,00002.731081,-00001.175413,-00000.254674,-00000.555342,-00000.007864,-00000.119961,-00000.162388
0000000001810,00002.263961,00002.047880,00002.146605,00002.971868,00002.788153,00002.851167,00002.693217,00004.222561,00002.366180,00002.731250,-00001.173393,-00000.254984,-00000.555614,-00000.007430,-00000.120105,-00000.162066
0000000001811,00002.262893,00002.047925,00002.145393,00002.972196,00002.788046,00002.850940,00002.693441,00004.221754,00002.366420,00002.730534,-00001.168515,-00000.255705,-00000.556437,-00000.007232,-00000.119841,-00000.161186
0000000001812,00002.262620,00002.047466,00002.145118,00002.971974,00002.788234,00002.850858,00002.693612,00004.222013,00002.366235,00002.730628,-00001.166263,-00000.255941,-00000.556604,-00000.007069,-00000.119666,-00000.160643
0000000001813,00002.262296,00002.047028,00002.144308,00002.971561,00002.788296,00002.850678,00002.693777,00004.222376,00002.366104,00002.730912,-00001.162627,-00000.256520,-00000.557279,-00000.006744,-00000.120011,-00000.159611
0000000001814,00002.262064,00002.046989,00002.143610,00002.971369,00002.788521,00002.850611,00002.694102,00004.222315,00002.366307,00002.731085,-00001.160828,-00000.256869,-00000.557397,-00000.006766,-00000.120513,-00000.159489
0000000001815,00002.262004,00002.046440,00002.141936,00002.970864,00002.788359,00002.850286,00002.694012,00004.222270,00002.366165,00002.731301,-00001.156549,-00000.256947,-00000.558136,-00000.006848,-00000.121639,-00000.159355
0000000001816,00002.261772,00002.046699,00002.140330,00002.970434,00002.788402,00002.850009,00002.694299,00004.222050,00002.366044,00002.731303,-00001.150910,-00000.257558,-00000.559128,-00000.006918,-00000.122054,-00000.159240
0000000001817,00002.262693,00002.046744,00002.139702,00002.970187,00002.788563,00002.849992,00002.694428,00004.222283,00002.366106,00002.731353,-00001.148314,-00000.258388,-00000.559640,-00000.006964,-00000.121912,-00000.159218
0000000001818,00002.263932,00002.046739,00002.138781,00002.969887,00002.788621,00002.849773,00002.694543,00004.222045,00002.366122,00002.731487,-00001.146111,-00000.259348,-00000.560153,-00000.006797,-00000.121682,-00000.159324
0000000001819,00002.266860,00002.046590,00002.137825,00002.970147,00002.788444,00002.850298,00002.694388,00004.222584,00002.365826,00002.731461,-00001.142025,-00000.261597,-00000.561389,-00000.006693,-00000.121183,-00000.159396
0000000001820,00002.268145,00002.046623,00002.137552,00002.970249,00002.788796,00002.850414,00002.694690,00004.222934,00002.365898,00002.731524,-00001.139935,-00000.262689,-00000.561761,-00000.006753,-00000.120926,-00000.158808
0000000001821,00002.270265,00002.046129,00002.136416,00002.969911,00002.788593,00002.850481,00002.694150,00004.222978,00002.365454,00002.731312,-00001.135316,-00000.263897,-00000.562395,-00000.006475,-00000.119814,-00000.157324
0000000001822,00002.271138,00002.045994,00002.135775,00002.970066,00002.788265,00002.850817,00002.693908,00004.222890,00002.365333,00002.731059,-00001.132999,-00000.264625,-00000.562484,-00000.006348,-00000.119544,-00000.157003
0000000001823,00002.272812,00002.046138,00002.134722,00002.969936,00002.788323,00002.851006,00002.693847,00004.222759,00002.365336,00002.730734,-00001.128867,-00000.266633,-00000.563011,-00000.005948,-00000.118456,-00000.157057
0000000001824,00002.273659,00002.046023,00002.134344,00002.969895,00002.788300,00002.850949,00002.693817,00004.222766,00002.365244,00002.730850,-00001.127392,-00000.268260,-00000.563240,-00000.005881,-00000.118397,-00000.157389
0000000001825,00002.274596,00002.046162,00002.132597,00002.970334,00002.787808,00002.851118,00002.693951,00004.222110,00002.365623,00002.730375,-00001.125182,-00000.270998,-00000.563473,-00000.005369,-00000.118387,-00000.158474
0000000001826,00002.275089,00002.046211,00002.132210,00002.970040,00002.787923,00002.850940,00002.693933,00004.222218,00002.365313,00002.730559,-00001.124606,-00000.272513,-00000.563686,-00000.005137,-00000.118811,-00000.159210
0000000001827,00002.276357,00002.046141,00002.130961,00002.970096,00002.787487,00002.851291,00002.693687,00004.222006,00002.365137,00002.730671,-00001.124806,-00000.275525,-00000.563671,-00000.004554,-00000.119283,-00000.160931
0000000001828,00002.276744,00002.046228,00002.130307,00002.970410,00002.787496,00002.851230,00002.694008,00004.221666,00002.365421,00002.730580,-00001.124958,-00000.276656,-00000.563658,-00000.004381,-00000.119506,-00000.161345
0000000001829,00002.277222,00002.046156,00002.129342,00002.970411,00002.787486,00002.850813,00002.693933,00004.221355,00002.365048,00002.730327,-00001.126194,-00000.278690,-00000.563466,-00000.004093,-00000.119512,-00000.161479
0000000001830,00002.277530,00002.046004,00002.129021,00002.970465,00002.787471,00002.851047,00002.693918,00004.221726,00002.364961,00002.730540,-00001.127036,-00000.279783,-00000.563285,-00000.003972,-00000.119302,-00000.161602
0000000001831,00002.278254,00002.045784,00002.128973,00002.970276,00002.787465,00002.851564,00002.693855,00004.222494,00002.364838,00002.730837,-00001.127781,-00000.280626,-00000.563148,-00000.003926,-00000.118976,-00000.161879
0000000001832,00002.278675,00002.045733,00002.128646,00002.970593,00002.787289,00002.851653,00002.693813,00004.222335,00002.364796,00002.730391,-00001.127907,-00000.280443,-00000.562982,-00000.003792,-00000.118851,-00000.162026
0000000001833,00002.279229,00002.045190,00002.128472,00002.970385,00002.787855,00002.851717,00002.693948,00004.223013,00002.364878,00002.731073,-00001.128160,-00000.279193,-00000.562165,-00000.002684,-00000.118773,-00000.162602
0000000001834,00002.279550,00002.044920,00002.128224,00002.970650,00002.787637,00002.852070,00002.693939,00004.222879,00002.365006,00002.731177,-00001.128285,-00000.278361,-00000.561536,-00000.002119,-00000.119033,-00000.163222
0000000001835,00002.279430,00002.044498,00002.127387,00002.970796,00002.787425,00002.852072,00002.694236,00004.222206,00002.365239,00002.730835,-00001.128301,-00000.275969,-00000.560571,-00000.000897,-00000.119654,-00000.163258
0000000001836,00002.279766,00002.044154,00002.127190,00002.971064,00002.787248,00002.852336,00002.694134,00004.222428,00002.365344,00002.730777,-00001.127834,-00000.274636,-00000.560413,-00000.000447,-00000.119866,-00000.163094
0000000001837,00002.279795,00002.043483,00002.126325,00002.970967,00002.787275,00002.852117,00002.694402,00004.221822,00002.365527,00002.730676,-00001.126466,-00000.272254,-00000.559797,-00000.000018,-00000.120182,-00000.162242
0000000001838,00002.279911,00002.043343,00002.126041,00002.970845,00002.787218,00002.851713,00002.694524,00004.221373,00002.365606,00002.730423,-00001.125975,-00000.271192,-00000.559540,00000.000176,-00000.120142,-00000.161945
0000000001839,00002.279919,00002.042611,00002.125529,00002.970236,00002.787250,00002.851405,00002.694734,00004.221468,00002.365568,00002.730556,-00001.125427,-00000.269684,-00000.559416,00000.000150,-00000.119873,-00000.161082
0000000001840,00002.279562,00002.042533,00002.124911,00002.970081,00002.787277,00002.851143,00002.694551,00004.221368,00002.365536,00002.730488,-00001.125687,-00000.268945,-00000.559673,00000.000127,-00000.119824,-00000.160348
0000000001841,00002.279522,00002.042325,00002.124561,00002.970338,00002.786659,00002.851428,00002.694474,00004.220984,00002.365255,00002.730322,-00001.125770,-00000.268712,-00000.559765,00000.000120,-00000.119812,-00000.160247
0000000001842,00002.279043,00002.041745,00002.123543,00002.970168,00002.786048,00002.850982,00002.694510,00004.220592,00002.365451,00002.730107,-00001.125252,-00000.268662,-00000.560151,00000.000102,-00000.119773,-00000.159637
0000000001843,00002.279181,00002.041374,00002.123447,00002.970300,00002.785822,00002.851221,00002.694235,00004.220927,00002.365331,00002.730226,-00001.125424,-00000.268996,-00000.560414,-00000.000089,-00000.119930,-00000.159708
0000000001844,00002.279297,00002.040754,00002.122958,00002.969773,00002.785879,00002.850987,00002.693944,00004.221451,00002.364971,00002.730569,-00001.126409,-00000.270174,-00000.560886,-00000.000257,-00000.120417,-00000.160085
0000000001845,00002.278851,00002.040226,00002.122723,00002.969868,00002.785747,00002.851150,00002.694059,00004.221535,00002.365028,00002.730317,-00001.126704,-00000.271539,-00000.561650,-00000.000582,-00000.120288,-00000.159862
0000000001846,00002.278827,00002.040005,00002.122323,00002.969794,00002.785408,00002.851223,00002.693652,00004.221450,00002.364814,00002.730312,-00001.126714,-00000.272621,-00000.561984,-00000.000740,-00000.120054,-00000.159964
0000000001847,00002.278835,00002.039958,00002.122159,00002.969949,00002.785272,00002.851289,00002.693795,00004.221424,00002.365076,00002.730103,-00001.126955,-00000.273789,-00000.562119,-00000.000858,-00000.119271,-00000.160035
0000000001848,00002.279183,00002.039730,00002.122043,00002.970018,00002.785230,00002.851589,00002.693932,00004.221693,00002.364935,00002.730284,-00001.129164,-00000.276430,-00000.562519,-00000.001456,-00000.118405,-00000.160364
0000000001849,00002.278936,00002.039354,00002.121762,00002.970077,00002.785195,00002.851118,00002.694231,00004.221741,00002.364997,00002.730074,-00001.132677,-00000.278679,-00000.562496,-00000.002147,-00000.118938,-00000.162094
0000000001850,00002.278585,00002.039168,00002.121651,00002.970572,00002.785071,00002.851009,00002.694324,00004.221619,00002.365129,00002.729871,-00001.135413,-00000.279950,-00000.562185,-00000.002557,-00000.119538,-00000.163527
0000000001851,00002.277701,00002.038876,00002.121428,00002.971455,00002.784515,00002.850987,00002.694201,00004.221134,00002.365343,00002.728816,-00001.141625,-00000.282400,-00000.561305,-00000.003447,-00000.120628,-00000.166239
0000000001852,00002.276632,00002.038943,00002.121347,00002.971849,00002.784467,00002.850894,00002.694365,00004.220962,00002.365612,00002.728737,-00001.145427,-00000.283774,-00000.560936,-00000.004115,-00000.121511,-00000.167717
0000000001853,00002.275131,00002.038685,00002.121532,00002.972905,00002.784001,00002.851797,00002.693693,00004.221300,00002.365936,00002.728576,-00001.152689,-00000.286563,-00000.559697,-00000.005135,-00000.123214,-00000.171982
0000000001854,00002.273957,00002.038388,00002.121595,00002.972820,00002.783974,00002.851625,00002.693283,00004.221584,00002.365809,00002.728678,-00001.156506,-00000.288123,-00000.559246,-00000.005883,-00000.124025,-00000.173589
0000000001855,00002.271948,00002.038393,00002.122288,00002.973369,00002.783763,00002.851875,00002.693134,00004.222010,00002.365741,00002.728708,-00001.167925,-00000.291536,-00000.558259,-00000.006822,-00000.124992,-00000.176800
0000000001856,00002.269511,00002.038035,00002.122334,00002.974018,00002.782131,00002.852087,00002.692281,00004.221466,00002.365683,00002.728007,-00001.181637,-00000.292808,-00000.556874,-00000.007259,-00000.125089,-00000.177719
0000000001857,00002.268701,00002.037959,00002.122384,00002.974587,00002.781667,00002.852470,00002.691986,00004.221631,00002.365735,00002.727997,-00001.187640,-00000.292662,-00000.556078,-00000.007274,-00000.125430,-00000.177920
0000000001858,00002.267437,00002.037730,00002.122191,00002.974752,00002.781287,00002.852087,00002.691918,00004.221366,00002.365815,00002.727955,-00001.193310,-00000.292258,-00000.555151,-00000.007268,-00000.125535,-00000.178683
0000000001859,00002.265853,00002.037833,00002.122795,00002.975014,00002.781112,00002.852087,00002.691609,00004.221281,00002.365928,00002.728092,-00001.204336,-00000.292153,-00000.552959,-00000.007094,-00000.125733,-00000.181680
0000000001860,00002.265266,00002.037596,00002.122959,00002.975299,00002.781111,00002.852237,00002.691241,00004.221400,00002.365811,00002.727876,-00001.208787,-00000.291839,-00000.551892,-00000.006924,-00000.125617,-00000.183660
