0000000000947,00000.991163,00000.729125,00001.397277,00000.963526,00002.099298,00001.836272,00001.882639,00001.952616,00001.622142,00001.811856,-00000.560312,-00000.039243,-00000.485242,-00000.050524,00000.003216,00000.006523
0000000000948,00000.991124,00000.728966,00001.397224,00000.962961,00002.098888,00001.835831,00001.882358,00001.952090,00001.621927,00001.811388,-00000.560400,-00000.039218,-00000.485416,-00000.050397,00000.003008,00000.006803
0000000000949,00000.991071,00000.728817,00001.397019,00000.962465,00002.098409,00001.836039,00001.882041,00001.952497,00001.621824,00001.811263,-00000.560436,-00000.039212,-00000.485283,-00000.050267,00000.003100,00000.006641
0000000000950,00000.991038,00000.728681,00001.396974,00000.961984,00002.098059,00001.836026,00001.881802,00001.952411,00001.621641,00001.811227,-00000.560511,-00000.038828,-00000.484705,-00000.049796,00000.003286,00000.006517
0000000000951,00000.990993,00000.728554,00001.396800,00000.961924,00002.097652,00001.835840,00001.881895,00001.952395,00001.621553,00001.811120,-00000.560542,-00000.038460,-00000.484228,-00000.049685,00000.003365,00000.006379
0000000000952,00000.990964,00000.728801,00001.396762,00000.961877,00002.097717,00001.835829,00001.882054,00001.952322,00001.621398,00001.811453,-00000.560243,-00000.038133,-00000.484100,-00000.049284,00000.003523,00000.006273
0000000000953,00000.990926,00000.728693,00001.396976,00000.961463,00002.097733,00001.835671,00001.881771,00001.952308,00001.621323,00001.811725,-00000.560269,-00000.037821,-00000.483694,-00000.048827,00000.003590,00000.006156
0000000000954,00000.990902,00000.728541,00001.397307,00000.961061,00002.097426,00001.835662,00001.881543,00001.952246,00001.621190,00001.812008,-00000.560377,-00000.037542,-00000.483221,-00000.048486,00000.004088,00000.006066
0000000000955,00000.990869,00000.728449,00001.397126,00000.961071,00002.097439,00001.835527,00001.881665,00001.952597,00001.621489,00001.811876,-00000.560762,-00000.037276,-00000.482876,-00000.048097,00000.004145,00000.005966
0000000000956,00000.991211,00000.728319,00001.397407,00000.962543,00002.097541,00001.835882,00001.881834,00001.953270,00001.621377,00001.812117,-00000.561217,-00000.037401,-00000.482474,-00000.047807,00000.004205,00000.005890
0000000000957,00000.991546,00000.728241,00001.397617,00000.964003,00002.097552,00001.836130,00001.881937,00001.953931,00001.621631,00001.812368,-00000.561545,-00000.037537,-00000.482180,-00000.047112,00000.004254,00000.005442
0000000000958,00000.991838,00000.728130,00001.397856,00000.965618,00002.097275,00001.836070,00001.881719,00001.955230,00001.621898,00001.812573,-00000.562295,-00000.037644,-00000.481837,-00000.046865,00000.004306,00000.005014
0000000000959,00000.992123,00000.728064,00001.398034,00000.967224,00002.097285,00001.835555,00001.881807,00001.956519,00001.622477,00001.812787,-00000.562937,-00000.037760,-00000.481950,-00000.046274,00000.004347,00000.004633
0000000000960,00000.992371,00000.727970,00001.397875,00000.968599,00002.097413,00001.835503,00001.881621,00001.957987,00001.623068,00001.812962,-00000.563575,-00000.037851,-00000.482021,-00000.046064,00000.004391,00000.004268
0000000000961,00000.992614,00000.727913,00001.398027,00000.970329,00002.098872,00001.835428,00001.881695,00001.959084,00001.623924,00001.813144,-00000.564121,-00000.037950,-00000.482117,-00000.045561,00000.004426,00000.003944
0000000000962,00000.992462,00000.727833,00001.397892,00000.971500,00002.100432,00001.835384,00001.881900,00001.959971,00001.624426,00001.813292,-00000.564665,-00000.038390,-00000.481815,-00000.045382,00000.004101,00000.003271
0000000000963,00000.992669,00000.728147,00001.397658,00000.972972,00002.102037,00001.835683,00001.881964,00001.961268,00001.625155,00001.813810,-00000.565493,-00000.038474,-00000.481534,-00000.045316,00000.003768,00000.002632
0000000000964,00000.993265,00000.728079,00001.397543,00000.974332,00002.103364,00001.836009,00001.882137,00001.962385,00001.625582,00001.814299,-00000.566318,-00000.038849,-00000.481639,-00000.045164,00000.003854,00000.002422
0000000000965,00000.993441,00000.728347,00001.397707,00000.975585,00002.104368,00001.836263,00001.882192,00001.963489,00001.626203,00001.814740,-00000.567023,-00000.039284,-00000.481400,-00000.045108,00000.003933,00000.002240
0000000000966,00000.993949,00000.728289,00001.398334,00000.977105,00002.105861,00001.836903,00001.882340,00001.965529,00001.626929,00001.815519,-00000.567726,-00000.039603,-00000.481490,-00000.044978,00000.003644,00000.002062
0000000000967,00000.994462,00000.728154,00001.398836,00000.978535,00002.107079,00001.837482,00001.882386,00001.967558,00001.627458,00001.816257,-00000.568689,-00000.039972,-00000.481286,-00000.044568,00000.003711,00000.001907
0000000000968,00000.994894,00000.728467,00001.399008,00000.980192,00002.107987,00001.838027,00001.882512,00001.968931,00001.628076,00001.816558,-00000.569650,-00000.039881,-00000.481000,-00000.044095,00000.003827,00000.001755
0000000000969,00000.995330,00000.728715,00001.399073,00000.981772,00002.109023,00001.838520,00001.882914,00001.965579,00001.628889,00001.817186,-00000.570470,-00000.039833,-00000.480826,-00000.043745,00000.003885,00000.001624
0000000000970,00000.996061,00000.728982,00001.399218,00000.983545,00002.110522,00001.839347,00001.883384,00001.962032,00001.629778,00001.817805,-00000.571288,-00000.039756,-00000.480582,-00000.043342,00000.003984,00000.001857
0000000000971,00000.996433,00000.729193,00001.399274,00000.984891,00002.111404,00001.840492,00001.883364,00001.959178,00001.630470,00001.818340,-00000.571985,-00000.040077,-00000.480435,-00000.043045,00000.004033,00000.001745
0000000000972,00000.996692,00000.729420,00001.399398,00000.986037,00002.112317,00001.840833,00001.883401,00001.956522,00001.630864,00001.819229,-00000.572682,-00000.040374,-00000.480227,-00000.042702,00000.004117,00000.001581
0000000000973,00000.997371,00000.729237,00001.399445,00000.987545,00002.113068,00001.841445,00001.883384,00001.954092,00001.631453,00001.819685,-00000.573639,-00000.040285,-00000.480101,-00000.042812,00000.004159,00000.001486
0000000000974,00000.997592,00000.729431,00001.399551,00000.988521,00002.113845,00001.842098,00001.883416,00001.955458,00001.631789,00001.819716,-00000.574594,-00000.040538,-00000.480288,-00000.042883,00000.004230,00000.001346
0000000000975,00000.997807,00000.729638,00001.399228,00000.989442,00002.114485,00001.842257,00001.883401,00001.957381,00001.631927,00001.820104,-00000.575046,-00000.040825,-00000.480543,-00000.042976,00000.004266,00000.001265
0000000000976,00000.997632,00000.729439,00001.398955,00000.989911,00002.114784,00001.841724,00001.883428,00001.957456,00001.631488,00001.820131,-00000.575497,-00000.041040,-00000.480702,-00000.043036,00000.004327,00000.001508
0000000000977,00000.997453,00000.729253,00001.398680,00000.989969,00002.113514,00001.841133,00001.883052,00001.957278,00001.630517,00001.820461,-00000.576244,-00000.041285,-00000.480920,-00000.043116,00000.004357,00000.001802
0000000000978,00000.997304,00000.729084,00001.398811,00000.989642,00002.112317,00001.840317,00001.883076,00001.956616,00001.630143,00001.820846,-00000.576991,-00000.041468,-00000.481417,-00000.043167,00000.004409,00000.001647
0000000000979,00000.996788,00000.728925,00001.398577,00000.989329,00002.111236,00001.839089,00001.883119,00001.956465,00001.629316,00001.821127,-00000.577627,-00000.041676,-00000.481965,-00000.043597,00000.004072,00000.001534
0000000000980,00000.996299,00000.728782,00001.398325,00000.989051,00002.110218,00001.838394,00001.883138,00001.955539,00001.628635,00001.821093,-00000.578263,-00000.041832,-00000.482389,-00000.044004,00000.003753,00000.001402
0000000000981,00000.995860,00000.728646,00001.398126,00000.988421,00002.108935,00001.837711,00001.882812,00001.955411,00001.627569,00001.821332,-00000.578441,-00000.042009,-00000.482856,-00000.044370,00000.003104,00000.001306
0000000000982,00000.995806,00000.728524,00001.397912,00000.988184,00002.108067,00001.837119,00001.882829,00001.954985,00001.626626,00001.821666,-00000.578620,-00000.042142,-00000.483216,-00000.044716,00000.002833,00000.001193
0000000000983,00000.995432,00000.728409,00001.397742,00000.988011,00002.107338,00001.836175,00001.882914,00001.954875,00001.626081,00001.821506,-00000.578772,-00000.042293,-00000.483614,-00000.045028,00000.002279,00000.001112
0000000000984,00000.994661,00000.728305,00001.397560,00000.987810,00002.106237,00001.835309,00001.882929,00001.954150,00001.625641,00001.821427,-00000.578924,-00000.042406,-00000.483921,-00000.045323,00000.001686,00000.001016
0000000000985,00000.994343,00000.728207,00001.397416,00000.987662,00002.105253,00001.834868,00001.882638,00001.954057,00001.624815,00001.821655,-00000.579053,-00000.042534,-00000.484259,-00000.045588,00000.001215,00000.000947
0000000000986,00000.994049,00000.728118,00001.397260,00000.987491,00002.104679,00001.834493,00001.882288,00001.953802,00001.624077,00001.821950,-00000.578820,-00000.042630,-00000.484520,-00000.045839,00000.000709,00000.000865
0000000000987,00000.993778,00000.728035,00001.396775,00000.987365,00002.103841,00001.834118,00001.882403,00001.953723,00001.623736,00001.821781,-00000.578204,-00000.042739,-00000.484808,-00000.046065,00000.000309,00000.000806
0000000000988,00000.993528,00000.727959,00001.396642,00000.987219,00002.102989,00001.833799,00001.882468,00001.953506,00001.623472,00001.822033,-00000.577643,-00000.042821,-00000.485031,-00000.046642,-00000.000122,00000.000736
0000000000989,00000.993297,00000.727888,00001.396592,00000.987113,00002.102639,00001.833479,00001.882566,00001.953439,00001.623181,00001.822251,-00000.576756,-00000.042914,-00000.485276,-00000.047197,-00000.000463,00000.000686
0000000000990,00000.993084,00000.727824,00001.396479,00000.986988,00002.102277,00001.833208,00001.882621,00001.953254,00001.623319,00001.822103,-00000.575915,-00000.042621,-00000.485465,-00000.047687,-00000.001192,00000.000627
0000000000991,00000.992525,00000.727764,00001.396073,00000.986534,00002.101979,00001.832573,00001.882705,00001.953197,00001.623072,00001.822289,-00000.574798,-00000.042338,-00000.485674,-00000.048160,-00000.001845,00000.000584
0000000000992,00000.992343,00000.727709,00001.395978,00000.986429,00002.101307,00001.831979,00001.882751,00001.953040,00001.622826,00001.822162,-00000.573719,-00000.042088,-00000.486198,-00000.048578,-00000.002466,00000.000171
0000000000993,00000.992230,00000.728020,00001.395995,00000.986405,00002.101054,00001.831801,00001.883186,00001.953354,00001.622615,00001.821958,-00000.572768,-00000.041847,-00000.486376,-00000.048980,-00000.003022,00000.000134
0000000000994,00000.992076,00000.727974,00001.395913,00000.986315,00002.100482,00001.831658,00001.883225,00001.953583,00001.622406,00001.821850,-00000.571849,-00000.041634,-00000.486822,-00000.049698,-00000.003550,00000.000145
0000000000995,00000.991980,00000.727876,00001.396291,00000.985932,00002.100266,00001.831507,00001.883232,00001.953850,00001.622227,00001.821676,-00000.571040,-00000.041429,-00000.487336,-00000.050404,-00000.004387,00000.000114
0000000000996,00000.992211,00000.727836,00001.396221,00000.985856,00002.100142,00001.831748,00001.883266,00001.954045,00001.622049,00001.821948,-00000.570258,-00000.041248,-00000.487716,-00000.051015,-00000.004836,00000.000124
0000000000997,00000.992492,00000.727753,00001.396180,00000.985893,00002.099959,00001.831619,00001.883272,00001.954635,00001.621896,00001.821800,-00000.569931,-00000.041073,-00000.488153,-00000.051979,-00000.005548,00000.000097
0000000000998,00000.992326,00000.728082,00001.396121,00000.985827,00002.099853,00001.831099,00001.883300,00001.955164,00001.622107,00001.821668,-00000.569266,-00000.040919,-00000.488476,-00000.052862,-00000.006294,00000.000105
0000000000999,00000.992565,00000.728011,00001.396086,00000.985859,00002.099697,00001.830990,00001.883305,00001.956392,00001.622340,00001.821541,-00000.568625,-00000.040770,-00000.488849,-00000.053682,-00000.006900,00000.000083
0000000001000,00000.992787,00000.727929,00001.396035,00000.986166,00002.099607,00001.831635,00001.883330,00001.957568,00001.622883,00001.821429,-00000.568058,-00000.041002,-00000.489124,-00000.054434,-00000.007535,00000.000090
0000000001001,00000.992990,00000.728231,00001.396005,00000.986918,00002.101288,00001.832267,00001.883334,00001.958613,00001.623444,00001.821322,-00000.567875,-00000.040875,-00000.489804,-00000.055132,-00000.008051,00000.000071
0000000001002,00000.993179,00000.728524,00001.396325,00000.986817,00002.103025,00001.832817,00001.883355,00001.959977,00001.624269,00001.821589,-00000.567756,-00000.041072,-00000.490401,-00000.055772,-00000.008954,00000.000076
0000000001003,00000.993352,00000.728418,00001.396662,00000.986732,00002.104093,00001.833355,00001.883358,00001.961230,00001.624747,00001.821860,-00000.567600,-00000.040964,-00000.490980,-00000.056367,-00000.009756,00000.000060
0000000001004,00000.993513,00000.728667,00001.396935,00000.987008,00002.105573,00001.833823,00001.883376,00001.962391,00001.625086,00001.822088,-00000.567499,-00000.040770,-00000.491488,-00000.056912,-00000.010525,-00000.000298
0000000001005,00000.994023,00000.728578,00001.396859,00000.987299,00002.106482,00001.834644,00001.883379,00001.963457,00001.625492,00001.822319,-00000.567366,-00000.040678,-00000.491981,-00000.057417,-00000.011208,-00000.000674
0000000001006,00000.994522,00000.728789,00001.397091,00000.987897,00002.107378,00001.835768,00001.883394,00001.964446,00001.626144,00001.822150,-00000.567280,-00000.040512,-00000.492414,-00000.057881,-00000.011862,-00000.000616
0000000001007,00000.994957,00000.728713,00001.397389,00000.988507,00002.108152,00001.836467,00001.883397,00001.965353,00001.626853,00001.822346,-00000.567167,-00000.040434,-00000.492833,-00000.058312,-00000.012443,-00000.000574
0000000001008,00000.995382,00000.728894,00001.397224,00000.989016,00002.109278,00001.837061,00001.883772,00001.961841,00001.627770,00001.822565,-00000.567093,-00000.040655,-00000.493202,-00000.059070,-00000.013001,-00000.000525
0000000001009,00000.995752,00000.729191,00001.397478,00000.989536,00002.110300,00001.837656,00001.884137,00001.958261,00001.628374,00001.822733,-00000.566997,-00000.040951,-00000.493559,-00000.059437,-00000.013133,-00000.000489
0000000001010,00000.996114,00000.729708,00001.397700,00000.989969,00002.111258,00001.838161,00001.884457,00001.955271,00001.629155,00001.822919,-00000.566571,-00000.041140,-00000.493872,-00000.060082,-00000.013607,-00000.000809
0000000001011,00000.996429,00000.729961,00001.397916,00000.990774,00002.112128,00001.839030,00001.884405,00001.952585,00001.630032,00001.823061,-00000.566490,-00000.041392,-00000.494176,-00000.060394,-00000.014082,-00000.001142
0000000001012,00000.996737,00000.730038,00001.398105,00000.991506,00002.112944,00001.839824,00001.884677,00001.950040,00001.631059,00001.823220,-00000.566490,-00000.041553,-00000.494443,-00000.060580,-00000.014486,-00000.001052
0000000001013,00000.997368,00000.730254,00001.398289,00000.992191,00002.113685,00001.840564,00001.884633,00001.948117,00001.632168,00001.823341,-00000.566421,-00000.041767,-00000.494702,-00000.060846,-00000.014528,-00000.000972
0000000001014,00000.997993,00000.730319,00001.398450,00000.993177,00002.114016,00001.841239,00001.884502,00001.947401,00001.633043,00001.823476,-00000.566421,-00000.041541,-00000.494929,-00000.061004,-00000.014509,-00000.000895
0000000001015,00000.998530,00000.730503,00001.398607,00000.994123,00002.115010,00001.841869,00001.884827,00001.947215,00001.634350,00001.823580,-00000.565999,-00000.041724,-00000.495150,-00000.061231,-00000.014544,-00000.000827
0000000001016,00000.999062,00000.730922,00001.399106,00000.994962,00002.116018,00001.842081,00001.885078,00001.946243,00001.635821,00001.823695,-00000.565637,-00000.041894,-00000.495343,-00000.061366,-00000.014528,-00000.000762
0000000001017,00000.999882,00000.731078,00001.399603,00000.995767,00002.116863,00001.840803,00001.885355,00001.945359,00001.636933,00001.824145,-00000.565277,-00000.042050,-00000.495531,-00000.061558,-00000.014195,-00000.000704
0000000001018,00001.000698,00000.731434,00001.400028,00000.996482,00002.117721,00001.839170,00001.885569,00001.945983,00001.637822,00001.824606,-00000.564969,-00000.042195,-00000.495695,-00000.061673,-00000.013819,-00000.001012
0000000001019,00001.001759,00000.731930,00001.400088,00000.997530,00002.118441,00001.837719,00001.885805,00001.946681,00001.638769,00001.824990,-00000.564663,-00000.042327,-00000.495492,-00000.061837,-00000.013536,-00000.001325
0000000001020,00001.002816,00000.732233,00001.400450,00000.998501,00002.118809,00001.836329,00001.885987,00001.946124,00001.639889,00001.825019,-00000.564400,-00000.042451,-00000.495270,-00000.061935,-00000.013215,-00000.001587
0000000001021,00001.002993,00000.732293,00001.400501,00000.998668,00002.119422,00001.836908,00001.886187,00001.944542,00001.640695,00001.824983,-00000.564140,-00000.042564,-00000.495097,-00000.062075,-00000.012974,-00000.001854
0000000001022,00001.003168,00000.732188,00001.400446,00000.998769,00002.120097,00001.837901,00001.886342,00001.942979,00001.640197,00001.825008,-00000.563554,-00000.042669,-00000.494907,-00000.062158,-00000.013064,-00000.002076
0000000001023,00001.003319,00000.732239,00001.400489,00000.998911,00002.120256,00001.838757,00001.886150,00001.943809,00001.639795,00001.824977,-00000.562969,-00000.042402,-00000.494760,-00000.061914,-00000.013222,-00000.002304
0000000001024,00001.003467,00000.732150,00001.400080,00000.998272,00002.120469,00001.838514,00001.885919,00001.946832,00001.638645,00001.824635,-00000.562470,-00000.041766,-00000.494236,-00000.061622,-00000.013298,-00000.002493
0000000001025,00001.003233,00000.732193,00001.399754,00000.997667,00002.119878,00001.837791,00001.885756,00001.948990,00001.637578,00001.824246,-00000.561972,-00000.041539,-00000.493748,-00000.061052,-00000.013070,-00000.002687
0000000001026,00001.002997,00000.731754,00001.399769,00000.996760,00002.118245,00001.837222,00001.885559,00001.951200,00001.636599,00001.823956,-00000.561548,-00000.040997,-00000.492939,-00000.060440,-00000.012772,-00000.003211
0000000001027,00001.003160,00000.731428,00001.399854,00000.995882,00002.116292,00001.836969,00001.885057,00001.952312,00001.635690,00001.823625,-00000.560761,-00000.040441,-00000.492160,-00000.059955,-00000.012577,-00000.003738
0000000001028,00001.002959,00000.731055,00001.399503,00000.995110,00002.114901,00001.837210,00001.884890,00001.952742,00001.634857,00001.823377,-00000.560037,-00000.039980,-00000.491472,-00000.059071,-00000.012324,-00000.004185
0000000001029,00001.002373,00000.730777,00001.399576,00000.992912,00002.113601,00001.837358,00001.884825,00001.953326,00001.634083,00001.823458,-00000.559004,-00000.039506,-00000.490446,-00000.058295,-00000.012158,-00000.004271
0000000001030,00001.001839,00000.730459,00001.399278,00000.990803,00002.112055,00001.837200,00001.884683,00001.953329,00001.633374,00001.822884,-00000.558025,-00000.038751,-00000.489497,-00000.057181,-00000.011942,-00000.004288
0000000001031,00001.001339,00000.729860,00001.399339,00000.988569,00002.110585,00001.837326,00001.884265,00001.953463,00001.632352,00001.822591,-00000.556783,-00000.037985,-00000.488624,-00000.056157,-00000.011801,-00000.004361
0000000001032,00001.000885,00000.729227,00001.399448,00000.986411,00002.109269,00001.837191,00001.883781,00001.953829,00001.631386,00001.822828,-00000.555224,-00000.037342,-00000.487817,-00000.055208,-00000.011255,-00000.004376
0000000001033,00001.000460,00000.726903,00001.399501,00000.984509,00002.108380,00001.837299,00001.883788,00001.953943,00001.630516,00001.822940,-00000.553078,-00000.036328,-00000.486711,-00000.055062,-00000.010772,-00000.004801
0000000001034,00001.000073,00000.724187,00001.399956,00000.982672,00002.107622,00001.837184,00001.883376,00001.953892,00001.629693,00001.823143,-00000.550300,-00000.035055,-00000.485660,-00000.054255,-00000.010307,-00000.005176
0000000001035,00001.000074,00000.721845,00001.400001,00000.981416,00002.106503,00001.837275,00001.883382,00001.953626,00001.628953,00001.823238,-00000.547385,-00000.033465,-00000.484356,-00000.053405,-00000.009533,-00000.005538
0000000001036,00001.000107,00000.718808,00001.400389,00000.981303,00002.105132,00001.837541,00001.883032,00001.953946,00001.628252,00001.823410,-00000.544294,-00000.032019,-00000.483099,-00000.052717,-00000.008774,-00000.005858
0000000001037,00001.000108,00000.716089,00001.401515,00000.981322,00002.104180,00001.837256,00001.882674,00001.954082,00001.627622,00001.823855,-00000.541087,-00000.030303,-00000.481988,-00000.051994,-00000.008116,-00000.006166
0000000001038,00000.999773,00000.713140,00001.402208,00000.981589,00002.103376,00001.837119,00001.882738,00001.953991,00001.627388,00001.824001,-00000.537730,-00000.028346,-00000.480555,-00000.051408,-00000.007107,-00000.006438
0000000001039,00000.999774,00000.710100,00001.403167,00000.981605,00002.102565,00001.836876,00001.882797,00001.954107,00001.626852,00001.824379,-00000.534637,-00000.026523,-00000.479247,-00000.050430,-00000.006183,-00000.007063
0000000001040,00000.999852,00000.705050,00001.404482,00000.981470,00002.101880,00001.836759,00001.882851,00001.954392,00001.627016,00001.824867,-00000.531054,-00000.024494,-00000.477665,-00000.049569,-00000.005324,-00000.007295
0000000001041,00000.999853,00000.699560,00001.405662,00000.981846,00002.101190,00001.836553,00001.882901,00001.954491,00001.627285,00001.825189,-00000.527332,-00000.022216,-00000.475826,-00000.048373,-00000.004175,-00000.007827
0000000001042,00000.999919,00000.694173,00001.407144,00000.982093,00002.100970,00001.836454,00001.882947,00001.955097,00001.627424,00001.825967,-00000.523556,-00000.019763,-00000.474115,-00000.047277,-00000.003082,-00000.008387
0000000001043,00000.999920,00000.688410,00001.408874,00000.982414,00002.100382,00001.836641,00001.882990,00001.955907,00001.627653,00001.826604,-00000.519663,-00000.017461,-00000.472187,-00000.046259,-00000.002103,-00000.008840
0000000001044,00000.999976,00000.683099,00001.410861,00000.982624,00002.099832,00001.836193,00001.883029,00001.956785,00001.627772,00001.826903,-00000.515722,-00000.015010,-00000.470368,-00000.044963,-00000.001172,-00000.009316
0000000001045,00000.999977,00000.677830,00001.413059,00000.982897,00002.099331,00001.835990,00001.883065,00001.958200,00001.627967,00001.827445,-00000.511682,-00000.012688,-00000.468727,-00000.043734,-00000.000339,-00000.009702
0000000001046,00001.000025,00000.672946,00001.415114,00000.983439,00002.098863,00001.836334,00001.883099,00001.959674,00001.628431,00001.827700,-00000.507602,-00000.010602,-00000.466816,-00000.042268,00000.000453,-00000.010108
0000000001047,00001.000025,00000.668461,00001.417348,00000.984034,00002.098074,00001.836161,00001.883130,00001.960878,00001.628597,00001.827799,-00000.503437,-00000.008624,-00000.465055,-00000.040858,00000.000799,-00000.010436
0000000001048,00000.999704,00000.664303,00001.419460,00000.984496,00002.097676,00001.836092,00001.883521,00001.962132,00001.628992,00001.828379,-00000.498876,-00000.006848,-00000.463429,-00000.039248,00000.001112,-00000.010781
0000000001049,00000.999341,00000.660485,00001.422087,00000.985002,00002.097367,00001.835581,00001.883547,00001.963158,00001.629133,00001.829188,-00000.493516,-00000.004802,-00000.461930,-00000.037322,00000.001406,-00000.011061
0000000001050,00000.998704,00000.656945,00001.425699,00000.985758,00002.097028,00001.835160,00001.883881,00001.963863,00001.629469,00001.830045,-00000.487819,-00000.002928,-00000.460182,-00000.035588,00000.001672,-00000.011355
0000000001051,00000.998396,00000.653332,00001.429387,00000.986915,00002.096765,00001.834725,00001.883903,00001.964736,00001.629589,00001.830734,-00000.482531,-00000.001186,-00000.458544,-00000.033586,00000.001923,-00000.011593
0000000001052,00000.998217,00000.649955,00001.433188,00000.988284,00002.096476,00001.834729,00001.883824,00001.960982,00001.629876,00001.831463,-00000.476955,00000.000047,-00000.457419,-00000.031385,00000.002512,-00000.011843
0000000001053,00000.997954,00000.646879,00001.436327,00000.989631,00002.095890,00001.834722,00001.883843,00001.957009,00001.630703,00001.831687,-00000.471728,00000.001167,-00000.456024,-00000.029318,00000.002725,-00000.012046
0000000001054,00000.997801,00000.644005,00001.439925,00000.991522,00002.095644,00001.834725,00001.884138,00001.954540,00001.631310,00001.832307,-00000.466618,00000.002217,-00000.454703,-00000.027081,00000.003227,-00000.012259
0000000001055,00000.997215,00000.641387,00001.443686,00000.993395,00002.095507,00001.834356,00001.884517,00001.951520,00001.632378,00001.832861,-00000.461443,00000.003170,-00000.453516,-00000.024595,00000.004134,-00000.012431
0000000001056,00000.996722,00000.638940,00001.447112,00000.994642,00002.095298,00001.833996,00001.884406,00001.949055,00001.632531,00001.833389,-00000.456367,00000.004064,-00000.452392,-00000.022328,00000.004923,-00000.012976
0000000001057,00000.996223,00000.636711,00001.451039,00000.996236,00002.095544,00001.833682,00001.884365,00001.946484,00001.633077,00001.833860,-00000.451236,00000.005238,-00000.451381,-00000.020212,00000.005696,-00000.013485
0000000001058,00000.995804,00000.634628,00001.454681,00000.997661,00002.095366,00001.833376,00001.884271,00001.944386,00001.633571,00001.834310,-00000.446190,00000.006362,-00000.450424,-00000.018645,00000.006005,-00000.013948
0000000001059,00000.995016,00000.632367,00001.458025,00000.999018,00002.095213,00001.833108,00001.884236,00001.942197,00001.633673,00001.834348,-00000.441095,00000.007362,-00000.449563,-00000.017207,00000.006663,-00000.014382
0000000001060,00000.993933,00000.630231,00001.461125,00001.000230,00002.095062,00001.832485,00001.884519,00001.940411,00001.634093,00001.834731,-00000.436437,00000.008681,-00000.449474,-00000.015873,00000.007289,-00000.014777
0000000001061,00000.992900,00000.628307,00001.464697,00001.001386,00002.095294,00001.832257,00001.884489,00001.938911,00001.634542,00001.835127,-00000.432100,00000.009895,-00000.448741,-00000.014648,00000.007849,-00000.014783
0000000001062,00000.991615,00000.626126,00001.468062,00001.002418,00002.095528,00001.832089,00001.884367,00001.937390,00001.634900,00001.835815,-00000.428134,00000.011018,-00000.448303,-00000.013150,00000.008382,-00000.015119
0000000001063,00000.990373,00000.624488,00001.471102,00001.003764,00002.095363,00001.831532,00001.884705,00001.935387,00001.635283,00001.836152,-00000.424080,00000.012414,-00000.448042,-00000.011744,00000.008859,-00000.015487
0000000001064,00000.989642,00000.622631,00001.474693,00001.005369,00002.095199,00001.831752,00001.884963,00001.934455,00001.635950,00001.836738,-00000.420341,00000.013733,-00000.447668,-00000.010106,00000.009312,-00000.015773
0000000001065,00000.988584,00000.620873,00001.478370,00001.006878,00002.095422,00001.831641,00001.885251,00001.933476,00001.636639,00001.837388,-00000.416527,00000.014922,-00000.447809,-00000.008547,00000.009718,-00000.015724
0000000001066,00000.987599,00000.619293,00001.482151,00001.008606,00002.095645,00001.831465,00001.885471,00001.933045,00001.637569,00001.838250,-00000.413344,00000.016407,-00000.448217,-00000.007152,00000.009742,-00000.015604
0000000001067,00000.986699,00000.617797,00001.485644,00001.010616,00002.095472,00001.831371,00001.885716,00001.933300,00001.638519,00001.838802,-00000.410459,00000.017782,-00000.448337,-00000.005462,00000.010087,-00000.015562
0000000001068,00000.985861,00000.616451,00001.488864,00001.012088,00002.095662,00001.831221,00001.885903,00001.933659,00001.638948,00001.839536,-00000.407750,00000.019047,-00000.447958,-00000.003549,00000.010470,-00000.015461
0000000001069,00000.984731,00000.615177,00001.491837,00001.013436,00002.095877,00001.831141,00001.886112,00001.932788,00001.639393,00001.840370,-00000.405294,00000.020217,-00000.448423,-00000.001747,00000.010401,-00000.015062
0000000001070,00000.983292,00000.613669,00001.493127,00001.014326,00002.095313,00001.830650,00001.886271,00001.935996,00001.638308,00001.840631,-00000.403350,00000.021656,-00000.448463,-00000.000119,00000.010001,-00000.014613
0000000001071,00000.980517,00000.612585,00001.493482,00001.014749,00002.095134,00001.829494,00001.886449,00001.937793,00001.637236,00001.840978,-00000.401985,00000.022653,-00000.448859,00000.001778,00000.009943,-00000.014274
0000000001072,00000.977477,00000.611301,00001.493491,00001.014781,00002.094654,00001.827988,00001.886222,00001.938347,00001.636312,00001.840838,-00000.401056,00000.023152,-00000.449256,00000.003890,00000.009965,-00000.013891
0000000001073,00000.974752,00000.610015,00001.493430,00001.014777,00002.094138,00001.827003,00001.886010,00001.938789,00001.635036,00001.840771,-00000.400620,00000.023638,-00000.449593,00000.005867,00000.009915,-00000.013602
0000000001074,00000.971802,00000.608922,00001.493438,00001.014079,00002.093730,00001.826084,00001.885454,00001.937447,00001.632435,00001.840289,-00000.400191,00000.024063,-00000.449569,00000.008027,00000.009935,-00000.013277
0000000001075,00000.969119,00000.607827,00001.492661,00001.013351,00002.093291,00001.825246,00001.884911,00001.935647,00001.629898,00001.839868,-00000.400183,00000.024476,-00000.449493,00000.010073,00000.009892,-00000.013031
0000000001076,00000.966245,00000.606896,00001.491579,00001.012393,00002.092943,00001.824101,00001.884437,00001.933053,00001.627684,00001.839458,-00000.400181,00000.024838,-00000.449472,00000.011913,00000.009908,-00000.012754
0000000001077,00000.963235,00000.605965,00001.489829,00001.011773,00002.092569,00001.822661,00001.883975,00001.930432,00001.626250,00001.838375,-00000.400174,00000.025190,-00000.449407,00000.013655,00000.009872,-00000.012544
0000000001078,00000.960788,00000.604810,00001.488183,00001.010958,00002.091910,00001.821686,00001.883572,00001.927861,00001.624728,00001.837300,-00000.400172,00000.025136,-00000.449389,00000.015221,00000.009886,-00000.012308
0000000001079,00000.958589,00000.603654,00001.486330,00001.010068,00002.091229,00001.820824,00001.883179,00001.925992,00001.622782,00001.836377,-00000.399803,00000.025072,-00000.449697,00000.016703,00000.009856,-00000.012130
0000000001080,00000.956143,00000.602670,00001.484566,00001.009011,00002.090668,00001.819631,00001.882836,00001.923804,00001.620761,00001.835825,-00000.399802,00000.024663,-00000.450045,00000.018036,00000.009867,-00000.011929
0000000001081,00000.954271,00000.601686,00001.482989,00001.007890,00002.090451,00001.818897,00001.882501,00001.921850,00001.618741,00001.835403,-00000.400213,00000.024246,-00000.449944,00000.019299,00000.009478,-00000.011778
0000000001082,00000.952189,00000.600849,00001.481124,00001.006991,00002.090337,00001.817882,00001.882209,00001.919987,00001.617020,00001.834933,-00000.400938,00000.023898,-00000.450240,00000.020433,00000.009126,-00000.011607
0000000001083,00000.950232,00000.600011,00001.479418,00001.006036,00002.090152,00001.816894,00001.881923,00001.918324,00001.615663,00001.834936,-00000.402014,00000.023543,-00000.450517,00000.021508,00000.008795,-00000.011477
0000000001084,00000.948460,00000.599299,00001.477831,00001.005634,00002.090054,00001.816392,00001.882037,00001.916738,00001.614561,00001.834899,-00000.402993,00000.023247,-00000.451131,00000.022474,00000.008494,-00000.011332
0000000001085,00000.947157,00000.598586,00001.476379,00001.005184,00002.089897,00001.815914,00001.881795,00001.915322,00001.613406,00001.834539,-00000.403909,00000.022582,-00000.451730,00000.023389,00000.008212,-00000.011222
0000000001086,00000.945648,00000.597979,00001.475391,00001.004478,00002.089814,00001.815487,00001.881529,00001.914335,00001.612106,00001.834507,-00000.404743,00000.021967,-00000.452253,00000.023849,00000.007957,-00000.011098
0000000001087,00000.944176,00000.597372,00001.474155,00001.003733,00002.089680,00001.815080,00001.881685,00001.913492,00001.610760,00001.834563,-00000.405885,00000.021401,-00000.452763,00000.024627,00000.007717,-00000.011004
0000000001088,00000.943254,00000.596855,00001.472950,00001.003132,00002.089247,00001.814717,00001.881459,00001.912652,00001.610015,00001.834173,-00000.406958,00000.020877,-00000.453208,00000.025381,00000.007499,-00000.010899
0000000001089,00000.942364,00000.596339,00001.471898,00001.002497,00002.089133,00001.814370,00001.881229,00001.911934,00001.609232,00001.833858,-00000.408293,00000.020395,-00000.453642,00000.026044,00000.007295,-00000.010819
0000000001090,00000.941579,00000.595899,00001.470510,00001.002348,00002.089127,00001.814061,00001.881037,00001.910856,00001.609323,00001.833526,-00000.409569,00000.019949,-00000.454021,00000.026323,00000.007110,-00000.010729
0000000001091,00000.940821,00000.595096,00001.469251,00001.001808,00002.088667,00001.813766,00001.880841,00001.909883,00001.609382,00001.833258,-00000.410706,00000.019176,-00000.454753,00000.026888,00000.006936,-00000.011024
0000000001092,00000.940153,00000.594359,00001.468432,00001.001319,00002.088299,00001.813865,00001.880677,00001.908965,00001.609460,00001.833338,-00000.411792,00000.018434,-00000.455439,00000.027125,00000.006778,-00000.010948
0000000001093,00000.939508,00000.593676,00001.467724,00001.000859,00002.088270,00001.813977,00001.880511,00001.908499,00001.609873,00001.833473,-00000.412760,00000.017776,-00000.456062,00000.026880,00000.006630,-00000.010836
0000000001094,00000.939302,00000.593411,00001.467027,00001.000442,00002.088319,00001.813698,00001.880371,00001.907717,00001.610303,00001.833541,-00000.413685,00000.017144,-00000.456646,00000.026720,00000.006496,-00000.010771
0000000001095,00000.939116,00000.593192,00001.466424,00001.000051,00002.088295,00001.813793,00001.880229,00001.907321,00001.610654,00001.833656,-00000.414509,00000.016584,-00000.457539,00000.026148,00000.006007,-00000.010676
0000000001096,00000.939303,00000.592967,00001.465830,00001.000059,00002.088337,00001.814282,00001.880110,00001.907018,00001.611020,00001.833714,-00000.415659,00000.015683,-00000.458762,00000.025649,00000.005530,-00000.010621
0000000001097,00000.939144,00000.593143,00001.465317,00000.999725,00002.088316,00001.814363,00001.880353,00001.907044,00001.611319,00001.834537,-00000.416723,00000.014844,-00000.459885,00000.024800,00000.005476,-00000.010902
0000000001098,00000.939304,00000.593314,00001.464811,00000.999370,00002.088352,00001.814416,00001.880251,00001.911140,00001.611630,00001.834949,-00000.417702,00000.013714,-00000.461288,00000.024012,00000.005070,-00000.011218
0000000001099,00000.939532,00000.593464,00001.464011,00000.999449,00002.088334,00001.814123,00001.880457,00001.915152,00001.612247,00001.835287,-00000.419333,00000.012273,-00000.462970,00000.022926,00000.004662,-00000.011458
0000000001100,00000.939668,00000.593610,00001.463218,00000.999508,00002.088365,00001.814893,00001.880371,00001.919001,00001.612875,00001.835276,-00000.421255,00000.010949,-00000.464528,00000.021892,00000.004316,-00000.011364
0000000001101,00000.939861,00000.593737,00001.462537,00000.999576,00002.088350,00001.815732,00001.880184,00001.922417,00001.613401,00001.835563,-00000.423007,00000.009723,-00000.465960,00000.020968,00000.004332,-00000.011205
0000000001102,00000.940340,00000.594224,00001.462225,00000.999989,00002.088739,00001.816388,00001.880474,00001.925694,00001.614298,00001.836279,-00000.424643,00000.008233,-00000.467286,00000.019725,00000.004400,-00000.011488
0000000001103,00000.940868,00000.594696,00001.462008,00001.000409,00002.089089,00001.817101,00001.880677,00001.928965,00001.615471,00001.836886,-00000.426497,00000.006826,-00000.468504,00000.018576,00000.004050,-00000.011716
0000000001104,00000.940912,00000.595473,00001.461380,00001.000762,00002.089420,00001.817660,00001.880923,00001.931392,00001.616235,00001.837133,-00000.428252,00000.005557,-00000.469633,00000.017518,00000.003746,-00000.011957
0000000001105,00000.941362,00000.596237,00001.461195,00001.001482,00002.089718,00001.818630,00001.881096,00001.934176,00001.617233,00001.837650,-00000.430193,00000.004360,-00000.470671,00000.016539,00000.003811,-00000.012151
0000000001106,00000.941762,00000.596899,00001.461023,00001.002145,00002.090362,00001.819469,00001.881306,00001.936968,00001.618246,00001.838223,-00000.432413,00000.003280,-00000.471632,00000.016001,00000.003552,-00000.012355
0000000001107,00000.942508,00000.597912,00001.460866,00001.002758,00002.090616,00001.820295,00001.881091,00001.939701,00001.618734,00001.838300,-00000.434429,00000.002260,-00000.472515,00000.015531,00000.003607,-00000.012520
0000000001108,00000.942849,00000.599201,00001.460356,00001.003685,00002.091164,00001.821009,00001.881269,00001.942077,00001.619959,00001.838788,-00000.436319,00000.001341,-00000.473333,00000.015073,00000.003749,-00000.012695
0000000001109,00000.943483,00000.601152,00001.459859,00001.004570,00002.091743,00001.821712,00001.881811,00001.944404,00001.621099,00001.839216,-00000.438397,00000.000110,-00000.474085,00000.014310,00000.003796,-00000.012473
0000000001110,00000.944862,00000.602612,00001.459426,00001.005359,00002.092210,00001.822319,00001.882326,00001.946427,00001.622505,00001.839631,-00000.440369,-00000.001035,-00000.474781,00000.013557,00000.003554,-00000.012621
0000000001111,00000.946853,00000.604273,00001.459366,00001.006112,00002.092703,00001.823281,00001.882425,00001.949133,00001.623476,00001.840359,-00000.442138,-00000.002083,-00000.475059,00000.012908,00000.003594,-00000.012432
0000000001112,00000.948753,00000.606241,00001.458997,00001.006784,00002.094552,00001.824524,00001.882501,00001.951581,00001.624673,00001.841075,-00000.444179,-00000.002695,-00000.475652,00000.012630,00000.003751,-00000.012558
0000000001113,00000.950448,00000.608744,00001.458583,00001.007425,00002.096785,00001.825705,00001.882585,00001.954248,00001.625862,00001.841695,-00000.446048,-00000.003224,-00000.476251,00000.012077,00000.003786,-00000.012760
0000000001114,00000.952427,00000.611871,00001.458268,00001.008723,00002.098359,00001.827126,00001.883012,00001.957420,00001.627606,00001.842667,-00000.447786,-00000.004109,-00000.476392,00000.011840,00000.003919,-00000.012868
0000000001115,00000.954233,00000.616540,00001.458279,00001.009994,00002.100260,00001.827768,00001.883446,00001.960416,00001.629344,00001.843558,-00000.449740,-00000.004922,-00000.476540,00000.011732,00000.003948,-00000.013039
0000000001116,00000.956281,00000.620654,00001.458011,00001.011099,00002.101600,00001.828615,00001.883447,00001.963117,00001.630829,00001.844385,-00000.451582,-00000.005674,-00000.476660,00000.011531,00000.004062,-00000.012768
0000000001117,00000.957819,00000.624266,00001.457657,00001.012181,00002.102856,00001.829525,00001.883454,00001.965667,00001.632309,00001.845143,-00000.453608,-00000.006367,-00000.476786,00000.011439,00000.004087,-00000.012914
0000000001118,00000.959200,00000.627768,00001.457067,00001.012758,00002.103996,00001.829883,00001.883454,00001.962887,00001.632847,00001.845485,-00000.455539,-00000.007007,-00000.476888,00000.011267,00000.004184,-00000.013046
0000000001119,00000.960508,00000.630480,00001.456766,00001.012954,00002.103614,00001.830295,00001.883460,00001.963606,00001.633019,00001.845767,-00000.457627,-00000.007597,-00000.476995,00000.011189,00000.004205,-00000.013171
0000000001120,00000.961321,00000.633098,00001.456263,00001.012720,00002.103134,00001.830600,00001.883461,00001.963779,00001.632751,00001.846058,-00000.459996,-00000.008142,-00000.477083,00000.011406,00000.004287,-00000.013283
0000000001121,00000.962072,00000.635408,00001.455281,00001.012524,00002.102809,00001.830588,00001.883466,00001.962578,00001.632172,00001.846299,-00000.462136,-00000.008644,-00000.477173,00000.011702,00000.004305,-00000.013389
0000000001122,00000.962764,00000.637273,00001.454853,00001.011962,00002.102400,00001.830484,00001.883104,00001.962000,00001.631219,00001.846184,-00000.464154,-00000.009108,-00000.477248,00000.011886,00000.004375,-00000.013122
0000000001123,00000.963041,00000.638514,00001.454017,00001.011433,00002.102123,00001.830474,00001.883108,00001.960614,00001.630362,00001.845663,-00000.465975,-00000.009535,-00000.477325,00000.012139,00000.004390,-00000.013212
0000000001124,00000.963267,00000.639377,00001.453290,00001.010954,00002.101049,00001.830749,00001.883162,00001.959759,00001.629551,00001.845565,-00000.467693,-00000.009930,-00000.477388,00000.011933,00000.004450,-00000.012985
0000000001125,00000.963503,00000.641158,00001.452578,00001.010141,00002.100451,00001.830740,00001.883166,00001.958943,00001.628822,00001.845484,-00000.469243,-00000.010294,-00000.477454,00000.012147,00000.004463,-00000.012699
0000000001126,00000.963695,00000.642981,00001.451959,00001.009370,00002.099537,00001.830611,00001.882849,00001.958215,00001.628131,00001.845401,-00000.470705,-00000.010631,-00000.477508,00000.012335,00000.004514,-00000.012868
0000000001127,00000.962808,00000.644498,00001.451353,00001.008678,00002.099027,00001.830604,00001.882490,00001.956794,00001.627511,00001.844970,-00000.472388,-00000.010940,-00000.477564,00000.012155,00000.004525,-00000.012987
0000000001128,00000.961883,00000.646049,00001.450826,00001.008022,00002.098612,00001.830494,00001.882583,00001.955086,00001.627285,00001.844899,-00000.473996,-00000.011227,-00000.477610,00000.012315,00000.004568,-00000.013131
0000000001129,00000.961490,00000.647340,00001.450310,00001.007070,00002.098541,00001.830488,00001.882640,00001.953151,00001.626757,00001.845257,-00000.475791,-00000.011490,-00000.477658,00000.012162,00000.004578,-00000.013233
0000000001130,00000.960703,00000.648662,00001.449499,00001.006512,00002.097825,00001.830394,00001.882356,00001.951696,00001.626203,00001.845196,-00000.477522,-00000.011734,-00000.478060,00000.012298,00000.004615,-00000.013355
0000000001131,00000.960006,00000.649761,00001.448697,00001.006426,00002.097402,00001.830389,00001.882405,00001.950049,00001.625753,00001.845139,-00000.479051,-00000.012321,-00000.478100,00000.012167,00000.004623,-00000.013079
0000000001132,00000.959336,00000.651248,00001.448369,00001.005951,00002.097518,00001.830309,00001.882163,00001.949537,00001.625281,00001.845450,-00000.480524,-00000.012891,-00000.478080,00000.012283,00000.004654,-00000.012820
0000000001133,00000.958742,00000.652909,00001.447686,00001.005516,00002.096794,00001.830668,00001.882204,00001.950311,00001.625261,00001.845401,-00000.481826,-00000.013391,-00000.478114,00000.012535,00000.004661,-00000.012585
0000000001134,00000.958172,00000.654901,00001.447407,00001.005111,00002.096530,00001.830237,00001.882362,00001.951326,00001.624859,00001.845666,-00000.483443,-00000.013514,-00000.478097,00000.012270,00000.004688,-00000.012365
0000000001135,00000.957667,00000.656315,00001.446826,00001.004741,00002.096277,00001.830179,00001.882034,00001.951985,00001.624479,00001.845624,-00000.484914,-00000.013577,-00000.478489,00000.012122,00000.004693,-00000.012165
0000000001136,00000.956818,00000.658011,00001.446226,00001.004034,00002.096053,00001.829813,00001.882168,00001.952487,00001.624137,00001.845487,-00000.486290,-00000.013681,-00000.478474,00000.012260,00000.004716,-00000.011978
0000000001137,00000.956388,00000.659578,00001.445731,00001.003718,00002.095837,00001.829764,00001.882252,00001.953048,00001.623814,00001.845451,-00000.487542,-00000.013735,-00000.478445,00000.012496,00000.004721,-00000.011807
0000000001138,00000.956029,00000.660658,00001.445582,00001.003479,00002.095646,00001.829814,00001.882003,00001.954200,00001.623522,00001.845334,-00000.488714,-00000.013824,-00000.478432,00000.012614,00000.004740,-00000.011648
0000000001139,00000.955662,00000.661629,00001.445524,00001.003210,00002.095463,00001.829772,00001.881711,00001.955041,00001.622884,00001.845667,-00000.489780,-00000.013869,-00000.478770,00000.012815,00000.004745,-00000.011503
0000000001140,00000.954994,00000.662912,00001.445035,00001.003007,00002.094937,00001.829816,00001.881500,00001.955659,00001.622636,00001.845205,-00000.490778,-00000.013945,-00000.478760,00000.013277,00000.004761,-00000.011367
0000000001141,00000.954319,00000.664101,00001.444985,00001.002415,00002.094781,00001.829780,00001.881252,00001.956375,00001.622456,00001.845125,-00000.491685,-00000.013983,-00000.478685,00000.013812,00000.004765,-00000.011243
0000000001142,00000.953750,00000.665194,00001.444932,00001.002242,00002.094696,00001.829817,00001.881434,00001.956901,00001.622245,00001.844731,-00000.492172,-00000.013685,-00000.478675,00000.014205,00000.004779,-00000.011128
0000000001143,00000.953175,00000.666206,00001.444889,00001.002101,00002.094563,00001.829786,00001.881586,00001.957510,00001.622091,00001.844664,-00000.492219,-00000.013355,-00000.478249,00000.014660,00000.004782,-00000.011023
0000000001144,00000.952691,00000.667136,00001.444844,00001.001954,00002.094491,00001.829818,00001.881741,00001.957958,00001.622274,00001.844691,-00000.492270,-00000.013101,-00000.477878,00000.014995,00000.004794,-00000.010924
0000000001145,00000.952565,00000.667998,00001.444808,00001.001471,00002.094015,00001.829792,00001.881507,00001.958477,00001.622144,00001.844996,-00000.491584,-00000.012821,-00000.477515,00000.015382,00000.005159,-00000.010835
0000000001146,00000.952515,00000.668789,00001.444769,00001.001346,00002.093954,00001.830181,00001.881640,00001.959221,00001.622662,00001.845383,-00000.491265,-00000.012604,-00000.477200,00000.015668,00000.005532,-00000.010751
0000000001147,00000.952408,00000.669886,00001.444738,00001.001297,00002.094274,00001.830159,00001.882166,00001.960025,00001.623639,00001.845642,-00000.491044,-00000.012365,-00000.476890,00000.015997,00000.005843,-00000.010675
0000000001148,00000.952365,00000.670559,00001.444705,00001.001191,00002.094222,00001.830128,00001.881916,00001.961021,00001.624081,00001.845971,-00000.490773,-00000.012181,-00000.476622,00000.016240,00000.006161,-00000.010241
0000000001149,00000.952274,00000.671130,00001.445042,00001.001150,00002.094495,00001.830109,00001.881639,00001.962069,00001.624550,00001.846192,-00000.490585,-00000.011978,-00000.475996,00000.016521,00000.006425,-00000.010176
0000000001150,00000.952238,00000.671704,00001.445014,00001.001059,00002.094450,00001.830446,00001.881426,00001.963280,00001.624926,00001.846473,-00000.490353,-00000.011821,-00000.475767,00000.016728,00000.006333,-00000.010169
0000000001151,00000.952160,00000.672552,00001.444938,00001.001387,00002.094320,00001.830430,00001.881552,00001.963809,00001.625688,00001.846661,-00000.490193,-00000.011648,-00000.475597,00000.016967,00000.006558,-00000.010114
0000000001152,00000.952129,00000.673403,00001.445277,00001.002035,00002.094645,00001.830716,00001.881734,00001.964840,00001.626371,00001.847262,-00000.489996,-00000.011877,-00000.475402,00000.017143,00000.006842,-00000.010108
0000000001153,00000.952063,00000.674126,00001.445574,00001.002677,00002.094897,00001.831065,00001.881842,00001.965653,00001.627019,00001.847422,-00000.490223,-00000.012093,-00000.475620,00000.016983,00000.006671,-00000.010061
0000000001154,00000.952037,00000.674850,00001.445863,00001.003228,00002.095173,00001.831309,00001.881996,00001.966530,00001.627601,00001.847934,-00000.490418,-00000.012288,-00000.475818,00000.016770,00000.006550,-00000.010056
0000000001155,00000.951981,00000.675828,00001.446117,00001.004138,00002.095387,00001.831606,00001.882088,00001.967222,00001.628516,00001.848433,-00000.490974,-00000.012471,-00000.476003,00000.016635,00000.006405,-00000.010016
0000000001156,00000.951958,00000.676808,00001.446362,00001.004970,00002.097437,00001.832176,00001.882582,00001.967970,00001.629373,00001.849594,-00000.491503,-00000.012637,-00000.476534,00000.016453,00000.006302,-00000.010012
0000000001157,00000.952999,00000.677640,00001.446578,00001.005744,00002.098708,00001.833155,00001.882298,00001.968559,00001.630152,00001.850382,-00000.491976,-00000.013156,-00000.477054,00000.015975,00000.005815,-00000.009978
0000000001158,00000.954068,00000.678474,00001.446787,00001.006453,00002.100089,00001.833640,00001.882356,00001.969195,00001.631245,00001.851008,-00000.492426,-00000.013298,-00000.477506,00000.015458,00000.005728,-00000.009974
0000000001159,00000.954954,00000.679183,00001.446971,00001.007112,00002.101534,00001.834111,00001.882476,00001.970422,00001.632271,00001.851679,-00000.492829,-00000.013377,-00000.477949,00000.015051,00000.005676,-00000.009945
0000000001160,00000.956227,00000.679893,00001.447512,00001.007715,00002.102710,00001.834524,00001.882526,00001.972052,00001.633201,00001.852574,-00000.493212,-00000.013497,-00000.477971,00000.014611,00000.005239,-00000.009942
0000000001161,00000.956981,00000.680859,00001.448031,00001.008639,00002.104303,00001.834562,00001.882991,00001.973822,00001.634438,00001.853508,-00000.493555,-00000.013564,-00000.477986,00000.014627,00000.005195,-00000.009918
0000000001162,00000.958065,00000.681463,00001.448491,00001.009153,00002.106030,00001.834551,00001.883396,00001.975935,00001.635592,00001.854633,-00000.493881,-00000.013667,-00000.478004,00000.014615,00000.005185,-00000.009915
0000000001163,00000.959069,00000.681923,00001.448933,00001.009939,00002.107386,00001.834583,00001.883429,00001.977442,00001.636645,00001.855428,-00000.494536,-00000.013724,-00000.478017,00000.014628,00000.005148,-00000.009894
0000000001164,00000.959992,00000.682437,00001.449325,00001.010739,00002.108130,00001.834573,00001.883411,00001.978878,00001.637628,00001.855660,-00000.495176,-00000.013811,-00000.478032,00000.014618,00000.005140,-00000.009892
0000000001165,00000.960847,00000.682828,00001.449702,00001.011409,00002.108922,00001.834963,00001.883439,00001.980161,00001.638161,00001.855974,-00000.495734,-00000.013497,-00000.477680,00000.014630,00000.005108,-00000.009874
0000000001166,00000.961633,00000.683266,00001.449672,00001.012090,00002.109919,00001.834592,00001.883787,00001.980658,00001.638998,00001.856172,-00000.496279,-00000.013209,-00000.477331,00000.014984,00000.005464,-00000.009872
0000000001167,00000.961635,00000.683237,00001.449267,00001.011934,00002.110592,00001.834562,00001.883811,00001.980299,00001.638726,00001.856076,-00000.496753,-00000.012941,-00000.477031,00000.015357,00000.005800,-00000.009857
0000000001168,00000.960490,00000.683247,00001.448880,00001.011063,00002.109264,00001.834609,00001.883744,00001.977820,00001.637625,00001.855519,-00000.497218,-00000.012696,-00000.476734,00000.015658,00000.006103,-00000.009855
0000000001169,00000.959404,00000.682858,00001.448535,00001.009842,00002.108386,00001.834220,00001.883402,00001.975700,00001.636305,00001.855075,-00000.497622,-00000.012831,-00000.476478,00000.015976,00000.006388,-00000.009480
0000000001170,00000.958429,00000.682141,00001.448205,00001.009100,00002.107256,00001.834260,00001.882982,00001.971776,00001.635367,00001.854237,-00000.498017,-00000.012622,-00000.475862,00000.016595,00000.006646,-00000.009478
0000000001171,00000.957504,00000.681448,00001.447548,00001.008061,00002.106146,00001.833929,00001.883053,00001.966706,00001.634606,00001.853497,-00000.498723,-00000.012011,-00000.474920,00000.017591,00000.006890,-00000.009521
0000000001172,00000.956674,00000.680475,00001.446904,00001.007066,00002.104820,00001.833600,00001.882696,00001.961914,00001.633445,00001.852784,-00000.499423,-00000.011471,-00000.474032,00000.018844,00000.007109,-00000.009520
0000000001173,00000.955887,00000.679885,00001.446708,00001.006182,00002.104238,00001.833318,00001.882757,00001.957598,00001.632435,00001.852153,-00000.500387,-00000.011314,-00000.473230,00000.019691,00000.007316,-00000.009194
0000000001174,00000.955543,00000.679057,00001.446523,00001.005698,00002.103473,00001.833401,00001.882452,00001.953881,00001.631447,00001.851184,-00000.500982,-00000.010853,-00000.472474,00000.020395,00000.007503,-00000.008830
0000000001175,00000.955236,00000.678191,00001.446356,00001.004945,00002.102614,00001.833161,00001.882141,00001.950207,00001.630586,00001.850647,-00000.501803,-00000.010720,-00000.471791,00000.021480,00000.007680,-00000.008552
0000000001176,00000.954943,00000.677486,00001.445836,00001.004170,00002.101600,00001.832869,00001.881882,00001.946681,00001.629745,00001.849821,-00000.502673,-00000.010691,-00000.471148,00000.022441,00000.007839,-00000.008243
0000000001177,00000.954319,00000.676750,00001.445331,00001.003529,00002.100869,00001.832665,00001.881617,00001.942827,00001.629013,00001.849001,-00000.503734,-00000.010577,-00000.470204,00000.023365,00000.007989,-00000.008369
0000000001178,00000.954070,00000.675424,00001.444888,00001.002870,00002.100368,00001.832779,00001.881397,00001.939825,00001.628296,00001.848299,-00000.504837,-00000.010189,-00000.469293,00000.024546,00000.008487,-00000.008468
0000000001179,00000.953538,00000.674071,00001.444458,00001.002324,00002.099746,00001.832605,00001.881534,00001.936907,00001.627673,00001.848326,-00000.506104,-00000.010092,-00000.468489,00000.025695,00000.008615,-00000.008576
0000000001180,00000.953326,00000.672579,00001.444081,00001.002125,00002.099320,00001.832702,00001.881709,00001.934351,00001.627063,00001.848091,-00000.507769,-00000.009763,-00000.467715,00000.026701,00000.009039,-00000.008660
0000000001181,00000.953236,00000.668888,00001.443715,00001.002023,00002.098790,00001.832917,00001.881464,00001.932231,00001.626533,00001.847752,-00000.509572,-00000.009317,-00000.466667,00000.027679,00000.009148,-00000.008389
0000000001182,00000.952693,00000.665442,00001.443394,00001.001492,00002.098427,00001.832637,00001.881250,00001.930417,00001.626014,00001.847551,-00000.511352,-00000.009036,-00000.465645,00000.028535,00000.009146,-00000.008098
0000000001183,00000.952254,00000.662300,00001.443445,00001.001042,00002.098339,00001.832820,00001.881403,00001.928975,00001.625562,00001.847625,-00000.513251,-00000.008295,-00000.464391,00000.029368,00000.009239,-00000.008230
0000000001184,00000.951791,00000.659728,00001.443535,00001.000952,00002.098030,00001.832944,00001.881584,00001.927431,00001.625120,00001.847455,-00000.515491,-00000.007693,-00000.463157,00000.030460,00000.009600,-00000.008345
0000000001185,00000.951780,00000.657054,00001.443216,00001.000569,00002.097593,00001.832737,00001.881352,00001.925840,00001.624735,00001.847155,-00000.517833,-00000.007061,-00000.462452,00000.031168,00000.009679,-00000.008457
0000000001186,00000.951749,00000.654139,00001.442929,00001.000130,00002.097330,00001.832843,00001.881143,00001.924526,00001.624359,00001.847010,-00000.520103,-00000.006549,-00000.461403,00000.031735,00000.009624,-00000.008555
0000000001187,00000.951740,00000.651499,00001.442657,00000.999804,00002.096957,00001.832667,00001.880946,00001.923172,00001.624032,00001.847117,-00000.522460,-00000.006374,-00000.460802,00000.031975,00000.009691,-00000.008651
0000000001188,00000.951713,00000.649381,00001.442050,00000.999793,00002.096733,00001.832757,00001.880768,00001.921691,00001.623711,00001.846994,-00000.524755,-00000.006301,-00000.460272,00000.032458,00000.009644,-00000.008734
0000000001189,00000.951705,00000.647133,00001.441819,00000.999516,00002.096416,00001.832969,00001.880600,00001.920538,00001.623070,00001.847085,-00000.526761,-00000.006152,-00000.459761,00000.032663,00000.009701,-00000.008816
0000000001190,00000.951683,00000.644967,00001.441665,00000.999143,00002.096225,00001.833046,00001.880448,00001.919639,00001.622797,00001.847343,-00000.528715,-00000.005726,-00000.459309,00000.032710,00000.009661,-00000.008887
0000000001191,00000.951676,00000.643054,00001.441831,00000.998907,00002.096318,00001.833227,00001.880668,00001.918658,00001.622614,00001.847421,-00000.530423,-00000.005600,-00000.458874,00000.032885,00000.009347,-00000.008956
0000000001192,00000.951657,00000.641210,00001.442063,00000.998590,00002.096156,00001.833655,00001.880539,00001.919707,00001.622382,00001.847640,-00000.532087,-00000.005238,-00000.458489,00000.032925,00000.009313,-00000.009016
0000000001193,00000.952014,00000.639581,00001.441842,00000.998752,00002.095872,00001.834172,00001.880726,00001.922862,00001.622226,00001.847344,-00000.533540,-00000.004767,-00000.458119,00000.032711,00000.009045,-00000.009075
0000000001194,00000.951997,00000.638012,00001.442039,00000.998482,00002.096097,00001.834537,00001.880979,00001.926295,00001.622028,00001.847530,-00000.534957,-00000.004459,-00000.457791,00000.032746,00000.008654,-00000.009127
0000000001195,00000.953027,00000.636625,00001.442213,00000.997894,00002.096218,00001.834614,00001.881138,00001.929344,00001.621895,00001.847641,-00000.536194,-00000.004058,-00000.457476,00000.032563,00000.008426,-00000.009177
0000000001196,00000.954101,00000.635289,00001.442018,00000.998027,00002.096046,00001.834924,00001.881354,00001.931903,00001.622453,00001.847437,-00000.537400,-00000.003796,-00000.457197,00000.032230,00000.008092,-00000.009584
0000000001197,00000.954978,00000.634108,00001.441804,00000.998253,00002.096149,00001.835353,00001.881489,00001.934499,00001.623065,00001.847531,-00000.538090,-00000.003455,-00000.456929,00000.032075,00000.008261,-00000.009989
0000000001198,00000.955893,00000.633333,00001.442001,00000.998366,00002.096729,00001.835980,00001.881672,00001.937040,00001.623902,00001.848083,-00000.538754,-00000.003231,-00000.457054,00000.031791,00000.007977,-00000.010335
0000000001199,00000.957001,00000.632691,00001.442181,00000.998558,00002.098268,00001.836707,00001.881788,00001.939613,00001.624424,00001.848526,-00000.539342,-00000.003304,-00000.457189,00000.031296,00000.007758,-00000.010318
0000000001200,00000.958143,00000.632032,00001.442349,00000.998291,00002.099850,00001.836153,00001.881581,00001.942139,00001.624774,00001.848633,-00000.539544,-00000.003476,-00000.457295,00000.030692,00000.007517,-00000.010250
0000000001201,00000.959087,00000.631848,00001.442502,00000.998454,00002.101160,00001.836046,00001.881679,00001.944692,00001.625581,00001.849010,-00000.539682,-00000.003538,-00000.457410,00000.030270,00000.007330,-00000.010235
0000000001202,00000.960059,00000.631649,00001.443008,00000.998590,00002.102869,00001.835937,00001.881866,00001.947205,00001.626241,00001.849464,-00000.539854,-00000.003322,-00000.457501,00000.029393,00000.006762,-00000.010177
0000000001203,00000.960862,00000.631493,00001.443501,00000.998729,00002.104347,00001.836209,00001.881950,00001.949016,00001.626928,00001.849422,-00000.539971,-00000.003375,-00000.457598,00000.028671,00000.006603,-00000.010164
0000000001204,00000.962052,00000.632412,00001.443569,00000.999208,00002.105439,00001.836479,00001.882109,00001.950793,00001.627491,00001.849445,-00000.540480,-00000.003191,-00000.457675,00000.027924,00000.006482,-00000.010115
0000000001205,00000.963099,00000.633367,00001.443989,00000.999326,00002.106698,00001.836711,00001.882543,00001.952334,00001.628075,00001.849773,-00000.540580,-00000.002873,-00000.457758,00000.027310,00000.005984,-00000.010104
0000000001206,00000.963750,00000.634512,00001.444046,00000.999734,00002.107991,00001.836941,00001.882678,00001.953846,00001.628554,00001.850156,-00000.540288,-00000.002717,-00000.457824,00000.026674,00000.005881,-00000.010062
0000000001207,00000.964641,00000.635688,00001.444404,00001.000560,00002.109062,00001.837138,00001.882685,00001.955521,00001.629052,00001.850434,-00000.540373,-00000.002446,-00000.457895,00000.026152,00000.005457,-00000.010415
0000000001208,00000.965557,00000.636301,00001.444453,00001.000907,00002.109799,00001.837333,00001.882437,00001.957172,00001.629459,00001.850760,-00000.540125,-00000.002313,-00000.458313,00000.025248,00000.005369,-00000.010379
0000000001209,00000.966316,00000.637302,00001.444394,00001.001610,00002.110711,00001.838227,00001.882806,00001.958597,00001.630246,00001.850997,-00000.539834,-00000.002082,-00000.458736,00000.024440,00000.005371,-00000.010318
0000000001210,00000.967459,00000.637823,00001.444799,00001.002631,00002.111702,00001.839119,00001.882958,00001.961454,00001.631318,00001.851638,-00000.539623,-00000.001969,-00000.459093,00000.023670,00000.005296,-00000.010650
0000000001211,00000.968830,00000.639038,00001.445475,00001.003593,00002.112841,00001.840243,00001.883272,00001.964119,00001.632351,00001.852565,-00000.539375,-00000.001772,-00000.459816,00000.022982,00000.004935,-00000.010960
0000000001212,00000.970166,00000.640933,00001.446182,00001.004462,00002.114047,00001.841365,00001.883401,00001.966550,00001.633627,00001.853110,-00000.539195,-00000.001676,-00000.460119,00000.022327,00000.004509,-00000.011243
0000000001213,00000.971696,00000.643418,00001.446395,00001.005280,00002.115017,00001.842321,00001.883668,00001.969182,00001.634868,00001.853900,-00000.539710,-00000.001509,-00000.460372,00000.021741,00000.004564,-00000.011507
0000000001214,00000.973196,00000.645757,00001.446997,00001.006020,00002.115681,00001.843276,00001.883778,00001.971615,00001.635954,00001.854726,-00000.541008,-00000.001427,-00000.460267,00000.021184,00000.004201,-00000.011748
0000000001215,00000.974136,00000.647510,00001.447177,00001.006354,00002.116144,00001.844091,00001.883643,00001.973129,00001.636649,00001.855036,-00000.543986,-00000.001285,-00000.459757,00000.021048,00000.004248,-00000.011973
0000000001216,00000.974688,00000.648412,00001.446964,00001.005896,00002.116709,00001.844904,00001.883737,00001.973386,00001.636485,00001.855377,-00000.549444,-00000.001215,-00000.459305,00000.020936,00000.003939,-00000.012178
0000000001217,00000.974762,00000.647365,00001.446393,00001.002915,00002.116741,00001.844871,00001.883621,00001.971410,00001.635625,00001.854915,-00000.559236,-00000.001094,-00000.458145,00000.020458,00000.003979,-00000.012369
0000000001218,00000.974143,00000.645594,00001.445486,00000.999259,00002.115408,00001.844475,00001.883701,00001.966550,00001.634397,00001.854479,-00000.573678,-00000.001397,-00000.456672,00000.020000,00000.004079,-00000.012544
0000000001219,00000.972393,00000.643252,00001.444636,00000.994545,00002.113983,00001.843359,00001.883240,00001.961240,00001.632576,00001.854086,-00000.592534,-00000.002019,-00000.454959,00000.019592,00000.003750,-00000.012707
0000000001220,00000.970415,00000.640655,00001.442776,00000.989619,00002.112486,00001.842659,00001.882945,00001.956377,00001.629354,00001.853715,-00000.614624,-00000.002640,-00000.453342,00000.019565,00000.003472,-00000.012855
0000000001221,00000.968199,00000.637573,00001.440602,00000.984155,00002.110910,00001.842435,00001.882190,00001.951494,00001.625628,00001.853018,-00000.639020,-00000.003170,-00000.451883,00000.019581,00000.003556,-00000.012994
0000000001222,00000.965426,00000.634637,00001.438292,00000.978510,00002.109636,00001.841476,00001.881576,00001.946628,00001.622522,00001.851977,-00000.664718,-00000.003699,-00000.450870,00000.019558,00000.003682,-00000.013120
0000000001223,00000.962815,00000.632013,00001.436079,00000.973496,00002.108294,00001.840560,00001.880933,00001.941746,00001.620075,00001.850657,-00000.691292,-00000.005238,-00000.449991,00000.019572,00000.003390,-00000.013239
0000000001224,00000.960454,00000.629513,00001.434113,00000.968327,00002.107209,00001.840106,00001.880411,00001.937241,00001.617068,00001.849408,-00000.718973,-00000.006777,-00000.449128,00000.019915,00000.003134,-00000.013346
0000000001225,00000.958231,00000.626917,00001.431865,00000.962970,00002.106067,00001.839689,00001.879501,00001.933084,00001.613171,00001.848285,-00000.750665,-00000.008813,-00000.448017,00000.020652,00000.003248,-00000.013447
0000000001226,00000.955859,00000.624426,00001.429466,00000.957119,00002.104781,00001.838940,00001.878693,00001.928886,00001.609161,00001.846496,-00000.786928,-00000.010848,-00000.446195,00000.021670,00000.003394,-00000.013538
0000000001227,00000.953603,00000.621853,00001.427190,00000.951108,00002.103809,00001.838222,00001.877918,00001.924622,00001.605117,00001.845177,-00000.829508,-00000.013307,-00000.443798,00000.023023,00000.003491,-00000.013261
0000000001228,00000.950858,00000.619733,00001.425148,00000.944313,00002.103076,00001.837222,00001.877231,00001.919598,00001.601703,00001.843654,-00000.882872,-00000.016128,-00000.440432,00000.024978,00000.003252,-00000.013339
0000000001229,00000.947850,00000.617179,00001.422847,00000.937018,00002.102249,00001.835884,00001.876209,00001.914154,00001.598261,00001.841442,-00000.945240,-00000.019310,-00000.436940,00000.026856,00000.002972,-00000.013466
0000000001230,00000.944425,00000.614649,00001.420383,00000.928332,00002.101988,00001.834307,00001.875623,00001.908425,00001.593541,00001.839058,-00001.017879,-00000.023525,-00000.431535,00000.028520,00000.003131,-00000.013532
0000000001231,00000.940412,00000.612475,00001.417699,00000.915591,00002.101283,00001.831718,00001.875116,00001.901977,00001.588434,00001.836087,-00001.099997,-00000.028411,-00000.425298,00000.031206,00000.003255,-00000.013278
0000000001232,00000.936408,00000.609595,00001.414150,00000.895499,00002.100336,00001.829287,00001.874255,00001.895649,00001.582964,00001.832605,-00001.193034,-00000.034176,-00000.417069,00000.034800,00000.003028,-00000.013334
0000000001233,00000.932267,00000.606294,00001.410051,00000.873406,00002.099373,00001.826720,00001.873460,00001.884717,00001.576802,00001.828625,-00001.296681,-00000.040149,-00000.406679,00000.038901,00000.003134,-00000.013480
0000000001234,00000.927770,00000.600940,00001.405216,00000.850497,00002.098930,00001.823925,00001.873090,00001.870986,00001.569244,00001.824573,-00001.412525,-00000.047959,-00000.395683,00000.043411,00000.004029,-00000.014254
0000000001235,00000.921705,00000.592687,00001.399913,00000.825159,00002.097747,00001.821014,00001.872413,00001.857326,00001.560733,00001.819733,-00001.539578,-00000.059211,-00000.385025,00000.046177,00000.004845,-00000.014741
0000000001236,00000.911709,00000.582687,00001.393620,00000.795498,00002.095918,00001.817183,00001.871010,00001.842372,00001.550671,00001.810842,-00001.678830,-00000.075656,-00000.373125,00000.047114,00000.004518,-00000.014674
0000000001237,00000.898927,00000.573122,00001.387291,00000.764858,00002.093824,00001.812529,00001.868982,00001.827478,00001.540886,00001.801643,-00001.823270,-00000.095030,-00000.358972,00000.047655,00000.004124,-00000.014725
0000000001238,00000.884976,00000.562433,00001.381571,00000.732715,00002.091904,00001.807816,00001.866699,00001.813296,00001.530869,00001.792985,-00001.971926,-00000.117011,-00000.343036,00000.048090,00000.003847,-00000.014668
0000000001239,00000.869015,00000.551388,00001.374370,00000.699375,00002.089395,00001.799500,00001.863159,00001.799166,00001.518911,00001.783703,-00002.126813,-00000.140760,-00000.323370,00000.051815,00000.002423,-00000.011447
0000000001240,00000.853511,00000.540111,00001.366598,00000.665844,00002.086672,00001.790772,00001.859039,00001.786005,00001.506030,00001.774519,-00002.287104,-00000.165640,-00000.299646,00000.060167,00000.000009,-00000.004506
0000000001241,00000.838110,00000.528894,00001.359016,00000.633109,00002.084173,00001.781879,00001.855300,00001.773250,00001.492222,00001.765166,-00002.452337,-00000.192025,-00000.271657,00000.072045,-00000.003379,00000.004041
0000000001242,00000.823459,00000.517843,00001.351674,00000.601661,00002.081493,00001.772635,00001.851429,00001.761321,00001.479080,00001.756259,-00002.619993,-00000.219735,-00000.239851,00000.086774,-00000.007248,00000.013215
0000000001243,00000.810711,00000.507206,00001.344131,00000.571617,00002.079366,00001.763975,00001.848246,00001.750463,00001.465874,00001.747208,-00002.789316,-00000.248727,-00000.204052,00000.104142,-00000.010133,00000.022305
0000000001244,00000.798602,00000.497436,00001.336067,00000.542669,00002.077447,00001.755743,00001.845314,00001.740307,00001.453235,00001.736723,-00002.958888,-00000.278847,-00000.166092,00000.123210,-00000.011249,00000.030841
0000000001245,00000.787750,00000.488018,00001.327470,00000.514915,00002.075636,00001.748372,00001.842605,00001.731063,00001.440542,00001.727204,-00003.129880,-00000.310421,-00000.125821,00000.144889,-00000.009714,00000.037128
0000000001246,00000.778167,00000.478612,00001.319154,00000.488821,00002.074002,00001.741726,00001.839746,00001.722780,00001.428331,00001.716465,-00003.296730,-00000.341141,-00000.083710,00000.168015,-00000.006674,00000.041130
0000000001247,00000.769654,00000.469506,00001.310383,00000.463743,00002.072098,00001.735451,00001.836713,00001.714912,00001.416800,00001.707273,-00003.458258,-00000.370560,-00000.040357,00000.192637,-00000.003191,00000.043579
0000000001248,00000.761859,00000.460410,00001.301490,00000.440077,00002.070344,00001.729794,00001.833917,00001.707497,00001.405679,00001.699219,-00003.612632,-00000.398163,00000.003473,00000.218129,00000.000849,00000.044083
0000000001249,00000.754249,00000.451207,00001.292572,00000.417640,00002.068723,00001.724451,00001.831335,00001.700799,00001.394774,00001.691031,-00003.760299,-00000.423933,00000.048361,00000.244895,00000.005991,00000.043629
0000000001250,00000.747613,00000.442375,00001.283550,00000.393866,00002.066867,00001.719273,00001.828954,00001.694124,00001.384218,00001.683449,-00003.902239,-00000.448157,00000.094380,00000.272764,00000.011969,00000.042970
0000000001251,00000.741497,00000.434178,00001.274870,00000.368235,00002.065850,00001.714725,00001.826757,00001.687696,00001.374572,00001.676115,-00004.037743,-00000.471183,00000.139849,00000.300266,00000.018523,00000.042584
0000000001252,00000.735848,00000.425571,00001.265738,00000.343279,00002.064633,00001.711404,00001.824730,00001.681651,00001.365586,00001.669298,-00004.166195,-00000.492168,00000.185193,00000.327981,00000.025789,00000.042385
0000000001253,00000.730279,00000.417504,00001.256898,00000.320009,00002.063767,00001.708984,00001.822497,00001.676179,00001.357012,00001.662330,-00004.289169,-00000.512133,00000.229343,00000.355747,00000.032457,00000.041331
0000000001254,00000.725107,00000.409452,00001.248761,00000.298764,00002.062731,00001.707246,00001.820046,00001.670670,00001.348636,00001.655800,-00004.404687,-00000.529997,00000.271572,00000.382969,00000.038280,00000.040073
0000000001255,00000.720366,00000.401496,00001.240510,00000.278954,00002.061631,00001.706273,00001.817419,00001.665649,00001.340611,00001.648780,-00004.513365,-00000.545905,00000.313147,00000.409871,00000.044319,00000.038813
0000000001256,00000.715601,00000.393915,00001.232495,00000.260868,00002.061112,00001.705519,00001.815332,00001.660959,00001.333481,00001.639956,-00004.614972,-00000.560024,00000.353813,00000.435948,00000.050728,00000.038468
0000000001257,00000.711202,00000.386417,00001.224745,00000.244004,00002.060538,00001.706506,00001.813096,00001.656322,00001.326650,00001.628538,-00004.710391,-00000.572841,00000.391746,00000.460301,00000.057320,00000.038483
0000000001258,00000.707145,00000.378875,00001.217559,00000.228607,00002.059733,00001.708403,00001.810594,00001.651967,00001.320217,00001.618124,-00004.800154,-00000.584136,00000.427453,00000.483588,00000.063864,00000.040004
0000000001259,00000.703038,00000.371041,00001.210598,00000.214250,00002.058882,00001.711420,00001.807964,00001.648019,00001.314401,00001.607315,-00004.883199,-00000.593232,00000.461196,00000.505408,00000.070201,00000.041830
0000000001260,00000.698858,00000.363532,00001.203755,00000.201144,00002.057834,00001.714123,00001.805472,00001.643949,00001.308925,00001.596636,-00004.959614,-00000.601033,00000.493045,00000.525958,00000.076135,00000.044213
0000000001261,00000.694636,00000.356137,00001.197467,00000.188922,00002.057110,00001.716691,00001.803233,00001.640588,00001.303611,00001.586346,-00005.032487,-00000.608777,00000.523585,00000.546711,00000.081530,00000.046857
0000000001262,00000.690715,00000.349382,00001.191279,00000.177764,00002.056580,00001.719719,00001.800749,00001.637486,00001.298587,00001.576166,-00005.102618,-00000.615781,00000.553237,00000.568196,00000.086581,00000.048885
0000000001263,00000.687484,00000.342724,00001.185563,00000.167359,00002.055964,00001.722993,00001.798480,00001.634625,00001.293700,00001.567769,-00005.169371,-00000.622011,00000.581049,00000.589853,00000.092625,00000.050410
0000000001264,00000.684872,00000.336611,00001.180295,00000.157861,00002.055513,00001.726296,00001.796365,00001.631984,00001.289423,00001.559466,-00005.233064,-00000.627611,00000.607381,00000.611408,00000.099465,00000.050323
0000000001265,00000.682121,00000.330943,00001.175066,00000.149003,00002.054988,00001.729809,00001.794434,00001.629548,00001.285626,00001.550504,-00005.292793,-00000.633277,00000.632146,00000.632384,00000.105336,00000.048356
0000000001266,00000.679171,00000.325013,00001.169856,00000.140917,00002.054604,00001.732983,00001.792633,00001.626937,00001.281622,00001.541984,-00005.349918,-00000.639858,00000.654925,00000.653637,00000.110070,00000.045742
0000000001267,00000.676104,00000.318373,00001.164679,00000.133377,00002.054157,00001.736337,00001.790627,00001.624501,00001.277301,00001.531815,-00005.403667,-00000.645770,00000.677458,00000.675122,00000.115793,00000.042980
0000000001268,00000.672142,00000.311511,00001.159155,00000.126493,00002.053468,00001.739765,00001.787642,00001.621916,00001.272078,00001.518395,-00005.456651,-00000.652823,00000.698664,00000.696842,00000.122726,00000.040754
0000000001269,00000.668079,00000.304771,00001.153297,00000.120074,00002.052362,00001.742620,00001.783757,00001.618753,00001.267312,00001.505022,-00005.507850,-00000.659307,00000.719298,00000.719123,00000.130501,00000.039491
0000000001270,00000.664344,00000.298567,00001.147506,00000.114214,00002.051049,00001.745901,00001.779403,00001.614013,00001.262140,00001.492508,-00005.556583,-00000.664949,00000.739527,00000.740878,00000.139667,00000.039411
0000000001271,00000.660885,00000.292466,00001.142156,00000.108749,00002.049745,00001.749056,00001.775370,00001.609144,00001.257357,00001.480761,-00005.603434,-00000.671557,00000.757818,00000.761297,00000.147737,00000.040149
0000000001272,00000.657343,00000.285007,00001.136864,00000.103760,00002.048265,00001.752938,00001.770575,00001.604745,00001.252228,00001.470109,-00005.647460,-00000.678537,00000.773951,00000.780180,00000.154815,00000.041169
0000000001273,00000.654036,00000.277274,00001.131946,00000.099108,00002.047154,00001.758527,00001.765690,00001.599875,00001.247431,00001.459745,-00005.688795,-00000.683800,00000.790248,00000.798651,00000.161685,00000.041072
0000000001274,00000.650294,00000.270199,00001.127441,00000.094862,00002.046257,00001.762920,00001.761245,00001.595042,00001.243065,00001.450677,-00005.727363,-00000.687565,00000.806521,00000.818355,00000.169162,00000.039763
0000000001275,00000.647116,00000.262890,00001.123618,00000.090901,00002.045312,00001.768403,00001.756725,00001.590533,00001.238618,00001.442217,-00005.762914,-00000.690594,00000.821846,00000.838070,00000.176462,00000.037504
0000000001276,00000.643931,00000.255416,00001.119782,00000.087286,00002.044185,00001.772868,00001.752578,00001.586419,00001.234539,00001.434497,-00005.796472,-00000.693799,00000.836062,00000.856294,00000.183552,00000.034939
0000000001277,00000.640500,00000.248468,00001.116165,00000.083915,00002.043381,00001.777174,00001.749092,00001.582217,00001.230753,00001.426933,-00005.827100,-00000.696378,00000.848745,00000.871989,00000.189041,00000.032290
0000000001278,00000.637062,00000.241743,00001.113262,00000.080837,00002.042784,00001.783877,00001.745562,00001.578352,00001.227280,00001.419998,-00005.854217,-00000.697292,00000.861210,00000.885327,00000.192900,00000.029381
0000000001279,00000.633416,00000.235465,00001.110545,00000.077967,00002.042099,00001.790444,00001.742231,00001.574776,00001.224057,00001.413921,-00005.875937,-00000.695859,00000.874184,00000.899051,00000.195758,00000.026400
0000000001280,00000.630490,00000.229740,00001.108437,00000.075347,00002.041592,00001.797602,00001.739226,00001.571485,00001.221101,00001.409106,-00005.891403,-00000.691559,00000.887698,00000.914033,00000.198318,00000.023198
0000000001281,00000.627749,00000.224396,00001.106850,00000.072903,00002.041008,00001.804644,00001.736754,00001.567715,00001.218720,00001.406835,-00005.904089,-00000.686349,00000.900557,00000.929344,00000.200026,00000.020298
0000000001282,00000.624532,00000.219885,00001.105418,00000.070673,00002.040939,00001.810738,00001.734558,00001.563463,00001.216566,00001.404913,-00005.915441,-00000.680874,00000.912061,00000.944276,00000.201480,00000.017934
0000000001283,00000.621110,00000.215335,00001.104430,00000.068593,00002.040443,00001.817095,00001.732454,00001.559890,00001.214539,00001.403342,-00005.924789,-00000.674987,00000.921919,00000.957673,00000.203296,00000.016554
0000000001284,00000.617646,00000.210407,00001.103574,00000.066694,00002.040021,00001.823008,00001.730222,00001.556270,00001.212343,00001.402431,-00005.930462,-00000.668512,00000.930988,00000.970021,00000.204897,00000.015630
0000000001285,00000.614007,00000.205808,00001.102733,00000.064923,00002.039961,00001.828421,00001.728430,00001.552503,00001.210618,00001.401820,-00005.929713,-00000.659873,00000.940105,00000.982152,00000.206080,00000.015906
0000000001286,00000.609607,00000.201249,00001.102367,00000.063307,00002.039965,00001.833817,00001.726893,00001.548333,00001.208748,00001.401770,-00005.923659,-00000.648556,00000.949276,00000.994841,00000.207080,00000.018385
0000000001287,00000.605058,00000.196247,00001.102013,00000.061800,00002.039551,00001.839150,00001.725005,00001.543675,00001.206191,00001.402338,-00005.916128,-00000.635034,00000.958490,00001.008070,00000.208813,00000.021522
0000000001288,00000.600587,00000.191277,00001.101701,00000.060423,00002.039191,00001.844107,00001.723333,00001.539037,00001.203873,00001.403021,-00005.908072,-00000.621046,00000.967385,00001.021774,00000.211478,00000.025447
0000000001289,00000.595989,00000.186655,00001.101401,00000.059140,00002.039202,00001.848647,00001.722089,00001.534346,00001.202059,00001.403868,-00005.899485,-00000.607358,00000.975591,00001.034850,00000.214405,00000.029931
0000000001290,00000.591457,00000.181700,00001.100773,00000.057969,00002.039258,00001.852504,00001.721029,00001.527858,00001.200086,00001.404812,-00005.888273,-00000.593274,00000.983164,00001.047242,00000.216673,00000.035086
0000000001291,00000.586454,00000.176677,00001.100879,00000.056876,00002.039267,00001.856732,00001.719969,00001.522051,00001.198179,00001.406258,-00005.873706,-00000.578356,00000.990875,00001.060187,00000.218076,00000.041081
0000000001292,00000.581508,00000.172095,00001.101433,00000.055879,00002.038953,00001.861104,00001.719067,00001.515802,00001.196137,00001.410690,-00005.856906,-00000.562375,00000.998773,00001.074002,00000.218194,00000.046195
0000000001293,00000.576161,00000.167456,00001.102612,00000.054949,00002.038960,00001.865428,00001.718165,00001.509044,00001.194150,00001.415549,-00005.842691,-00000.546048,00001.007152,00001.088288,00000.219025,00000.051660
0000000001294,00000.570861,00000.162830,00001.104897,00000.054100,00002.039055,00001.869513,00001.717397,00001.502636,00001.192412,00001.423312,-00005.831654,-00000.529904,00001.014963,00001.102225,00000.220576,00000.057465
0000000001295,00000.565584,00000.157793,00001.107352,00000.053308,00002.038699,00001.873920,00001.716629,00001.496520,00001.190358,00001.430714,-00005.819916,-00000.513828,00001.022096,00001.115112,00000.223461,00000.064295
0000000001296,00000.559984,00000.152041,00001.110023,00000.052586,00002.038780,00001.878123,00001.715975,00001.491065,00001.188515,00001.438049,-00005.804353,-00000.497545,00001.028746,00001.128065,00000.226233,00000.071413
0000000001297,00000.554403,00000.146664,00001.113202,00000.051912,00002.039202,00001.882237,00001.715684,00001.485859,00001.187130,00001.446889,-00005.785291,-00000.480594,00001.035907,00001.140849,00000.229051,00000.077590
0000000001298,00000.549636,00000.141404,00001.116201,00000.051296,00002.038908,00001.886541,00001.715127,00001.481578,00001.185561,00001.455310,-00005.764786,-00000.463467,00001.043382,00001.155141,00000.232136,00000.082562
0000000001299,00000.545247,00000.136464,00001.119270,00000.050723,00002.039268,00001.890406,00001.714517,00001.477508,00001.184019,00001.464650,-00005.743479,-00000.446497,00001.050929,00001.170015,00000.234899,00000.086369
0000000001300,00000.540826,00000.131987,00001.122186,00000.050199,00002.039380,00001.894432,00001.714769,00001.473864,00001.182683,00001.473270,-00005.725298,-00000.430103,00001.058018,00001.184359,00000.237888,00000.090964
0000000001301,00000.536728,00000.128144,00001.125161,00000.049711,00002.040049,00001.898086,00001.715337,00001.470399,00001.181733,00001.481946,-00005.708973,-00000.413843,00001.064806,00001.199198,00000.240602,00000.095293
0000000001302,00000.532601,00000.124333,00001.128006,00000.049265,00002.040871,00001.902239,00001.715914,00001.467660,00001.180959,00001.490373,-00005.692044,-00000.397710,00001.070841,00001.213223,00000.243509,00000.100656
0000000001303,00000.528386,00000.120336,00001.130539,00000.048849,00002.041077,00001.906075,00001.716761,00001.465436,00001.180150,00001.498485,-00005.673431,-00000.380602,00001.075168,00001.225493,00000.246183,00000.107970
0000000001304,00000.524148,00000.116365,00001.134050,00000.048469,00002.041414,00001.910336,00001.717615,00001.463466,00001.179491,00001.506021,-00005.654665,-00000.363240,00001.079580,00001.237432,00000.249746,00000.116163
0000000001305,00000.519834,00000.112600,00001.138020,00000.048115,00002.041952,00001.914327,00001.718336,00001.461936,00001.178802,00001.512927,-00005.636280,-00000.347225,00001.084715,00001.250779,00000.253836,00000.124203
0000000001306,00000.516226,00000.109220,00001.142097,00000.047792,00002.042602,00001.917955,00001.719426,00001.460622,00001.178604,00001.520068,-00005.618854,-00000.332082,00001.090648,00001.264934,00000.257958,00000.131541
0000000001307,00000.512917,00000.105652,00001.146565,00000.047491,00002.043060,00001.921715,00001.720765,00001.459683,00001.178380,00001.527398,-00005.601026,-00000.316998,00001.096470,00001.279925,00000.262166,00000.138386
0000000001308,00000.509845,00000.101686,00001.151487,00000.047216,00002.043250,00001.925529,00001.721693,00001.459290,00001.178212,00001.534928,-00005.584015,-00000.302655,00001.101883,00001.294514,00000.266400,00000.145358
0000000001309,00000.507028,00000.097560,00001.156016,00000.046959,00002.043640,00001.928730,00001.722833,00001.458490,00001.178021,00001.541894,-00005.568475,-00000.288363,00001.106114,00001.307639,00000.271070,00000.152273
0000000001310,00000.504413,00000.093458,00001.160931,00000.046725,00002.044165,00001.931977,00001.723986,00001.458155,00001.177878,00001.548304,-00005.552905,-00000.274339,00001.109272,00001.319333,00000.275038,00000.159297
0000000001311,00000.502378,00000.089583,00001.165876,00000.046507,00002.044497,00001.935790,00001.725320,00001.458200,00001.178441,00001.554960,-00005.534596,-00000.261083,00001.112148,00001.329780,00000.278651,00000.166272
0000000001312,00000.500877,00000.086091,00001.170423,00000.046307,00002.044944,00001.939642,00001.727026,00001.458278,00001.179770,00001.561506,-00005.514448,-00000.247694,00001.115561,00001.340461,00000.282028,00000.173340
0000000001313,00000.498781,00000.083155,00001.174995,00000.046121,00002.045589,00001.942526,00001.728524,00001.458316,00001.180976,00001.567534,-00005.494509,-00000.236046,00001.119461,00001.351894,00000.285104,00000.179278
0000000001314,00000.497141,00000.080183,00001.178866,00000.045952,00002.045969,00001.945443,00001.729614,00001.458019,00001.181744,00001.572744,-00005.478446,-00000.226462,00001.123092,00001.364252,00000.288705,00000.184932
0000000001315,00000.495357,00000.077320,00001.182032,00000.045793,00002.046156,00001.947898,00001.730527,00001.457326,00001.181682,00001.577876,-00005.467276,-00000.217635,00001.125686,00001.376525,00000.291686,00000.190713
0000000001316,00000.493598,00000.074790,00001.184965,00000.045649,00002.046480,00001.950380,00001.730729,00001.456711,00001.181248,00001.582674,-00005.457229,-00000.209113,00001.127689,00001.387408,00000.294026,00000.195163
0000000001317,00000.491717,00000.072353,00001.187298,00000.045514,00002.046276,00001.952470,00001.730781,00001.455758,00001.180832,00001.586680,-00005.445906,-00000.200147,00001.130624,00001.397493,00000.295475,00000.198633
0000000001318,00000.489494,00000.070199,00001.190157,00000.045391,00002.046189,00001.954584,00001.730590,00001.455234,00001.179737,00001.590401,-00005.434451,-00000.191078,00001.134505,00001.408209,00000.297105,00000.202059
0000000001319,00000.487892,00000.068124,00001.193231,00000.045277,00002.046015,00001.956726,00001.730271,00001.454786,00001.179020,00001.594175,-00005.423361,-00000.183083,00001.139180,00001.420422,00000.300153,00000.204650
0000000001320,00000.486362,00000.066291,00001.195666,00000.045172,00002.045578,00001.958162,00001.730109,00001.453977,00001.178088,00001.597706,-00005.412520,-00000.176451,00001.143936,00001.432447,00000.304079,00000.206478
0000000001321,00000.484636,00000.064525,00001.197557,00000.045074,00002.045431,00001.959623,00001.729837,00001.453232,00001.177478,00001.600918,-00005.403442,-00000.171458,00001.147915,00001.443570,00000.307399,00000.207958
0000000001322,00000.482971,00000.062963,00001.199267,00000.044985,00002.045421,00001.960846,00001.729336,00001.452181,00001.177047,00001.603561,-00005.394577,-00000.167264,00001.151238,00001.453806,00000.309653,00000.209514
0000000001323,00000.481501,00000.061460,00001.200877,00000.044902,00002.044933,00001.962089,00001.728742,00001.451185,00001.176527,00001.605933,-00005.387211,-00000.163739,00001.154263,00001.464726,00000.313206,00000.211137
0000000001324,00000.480446,00000.060131,00001.202332,00000.044826,00002.044925,00001.963493,00001.727953,00001.450653,00001.175798,00001.608183,-00005.379664,-00000.161257,00001.157092,00001.476706,00000.318390,00000.211737
0000000001325,00000.479558,00000.058851,00001.203703,00000.044755,00002.044509,00001.964915,00001.727447,00001.450167,00001.175356,00001.610202,-00005.374482,-00000.160071,00001.158942,00001.488541,00000.324679,00000.213118
0000000001326,00000.478660,00000.057720,00001.204942,00000.044691,00002.044502,00001.966835,00001.727138,00001.449714,00001.175097,00001.612117,-00005.371685,-00000.160497,00001.159173,00001.498740,00000.331269,00000.214354
0000000001327,00000.477904,00000.056630,00001.206109,00000.044630,00002.044511,00001.968771,00001.726708,00001.448938,00001.174721,00001.613836,-00005.371990,-00000.163115,00001.157845,00001.507002,00000.338074,00000.215530
0000000001328,00000.477140,00000.055667,00001.207164,00000.044575,00002.044142,00001.971494,00001.726082,00001.448552,00001.174501,00001.615467,-00005.373599,-00000.167468,00001.155140,00001.512781,00000.344047,00000.215856
0000000001329,00000.476859,00000.054740,00001.208520,00000.044524,00002.044150,00001.974956,00001.725715,00001.448617,00001.174543,00001.617293,-00005.373496,-00000.171148,00001.154010,00001.517275,00000.348751,00000.214318
0000000001330,00000.476571,00000.053920,00001.211232,00000.044477,00002.044199,00001.978000,00001.725545,00001.448651,00001.175082,00001.619044,-00005.370150,-00000.173403,00001.154609,00001.522920,00000.352385,00000.210242
0000000001331,00000.476332,00000.053130,00001.214563,00000.044434,00002.044568,00001.980947,00001.725959,00001.448707,00001.175843,00001.620961,-00005.363532,-00000.174722,00001.156186,00001.530011,00000.355302,00000.205668
0000000001332,00000.476449,00000.052432,00001.217597,00000.044394,00002.044610,00001.983901,00001.726540,00001.448736,00001.176664,00001.622452,-00005.358870,-00000.177004,00001.156697,00001.536268,00000.357669,00000.202924
0000000001333,00000.477072,00000.051166,00001.222653,00000.044323,00002.044597,00001.989651,00001.727023,00001.448445,00001.178012,00001.624990,-00005.350718,-00000.184424,00001.154483,00001.546543,00000.362531,00000.204675
0000000001334,00000.477964,00000.050088,00001.226957,00000.044262,00002.045311,00001.994908,00001.727798,00001.448560,00001.180247,00001.627514,-00005.334708,-00000.194367,00001.152598,00001.557466,00000.365581,00000.205803
0000000001335,00000.479168,00000.049601,00001.229067,00000.044235,00002.045948,00001.997298,00001.728416,00001.449003,00001.182114,00001.628742,-00005.323255,-00000.199337,00001.152827,00001.563438,00000.367851,00000.203117
0000000001336,00000.482288,00000.048755,00001.232417,00000.044188,00002.046824,00002.002869,00001.729346,00001.450124,00001.185191,00001.631434,-00005.311329,-00000.211054,00001.152640,00001.572575,00000.374101,00000.195770
0000000001337,00000.483817,00000.048389,00001.234050,00000.044167,00002.047055,00002.008272,00001.729999,00001.451174,00001.187182,00001.632834,-00005.310394,-00000.217388,00001.151844,00001.575501,00000.376487,00000.191608
0000000001338,00000.486609,00000.048086,00001.237385,00000.044130,00002.047767,00002.019830,00001.731057,00001.453060,00001.190956,00001.635643,-00005.304734,-00000.227146,00001.152529,00001.579942,00000.382541,00000.185609
0000000001339,00000.487877,00000.048149,00001.239041,00000.044113,00002.048206,00002.025244,00001.731484,00001.453905,00001.192780,00001.637072,-00005.300108,-00000.229976,00001.153179,00001.581910,00000.386907,00000.184043
0000000001340,00000.489703,00000.048245,00001.241271,00000.044084,00002.049109,00002.033552,00001.732684,00001.455022,00001.196447,00001.638888,-00005.287633,-00000.235323,00001.152939,00001.583221,00000.394314,00000.184611
0000000001341,00000.491982,00000.047601,00001.244258,00000.044059,00002.049515,00002.040625,00001.733705,00001.456699,00001.199932,00001.640796,-00005.267218,-00000.240238,00001.149470,00001.581072,00000.396629,00000.188722
0000000001342,00000.493148,00000.047686,00001.245787,00000.044048,00002.049591,00002.043107,00001.734365,00001.457559,00001.201519,00001.641855,-00005.255021,-00000.242050,00001.148503,00001.581041,00000.399481,00000.191835
0000000001343,00000.496003,00000.048940,00001.248103,00000.044028,00002.050288,00002.047671,00001.736588,00001.459222,00001.204975,00001.644048,-00005.238730,-00000.248504,00001.145694,00001.581030,00000.409009,00000.195597
0000000001344,00000.498423,00000.049327,00001.248549,00000.044019,00002.050519,00002.050484,00001.737384,00001.460013,00001.206096,00001.645201,-00005.232372,-00000.253788,00001.142753,00001.579538,00000.412474,00000.194878
0000000001345,00000.502308,00000.051425,00001.250454,00000.044004,00002.050715,00002.057579,00001.740246,00001.463487,00001.209597,00001.647258,-00005.217998,-00000.264664,00001.136445,00001.574672,00000.419707,00000.194923
0000000001346,00000.504224,00000.053817,00001.251497,00000.043997,00002.051025,00002.061071,00001.741487,00001.466813,00001.212290,00001.648538,-00005.208902,-00000.268387,00001.134967,00001.572173,00000.424966,00000.195282
0000000001347,00000.512730,00000.060775,00001.252004,00000.043980,00002.051334,00002.070104,00001.744756,00001.473610,00001.220179,00001.652154,-00005.174037,-00000.277883,00001.133583,00001.554991,00000.434812,00000.188410
0000000001348,00000.520296,00000.064778,00001.249939,00000.043966,00002.051964,00002.074985,00001.744494,00001.477344,00001.222947,00001.653967,-00005.138343,-00000.284571,00001.130800,00001.541706,00000.441016,00000.177275
0000000001349,00000.521195,00000.065066,00001.248427,00000.043962,00002.051783,00002.075661,00001.743524,00001.476176,00001.223039,00001.654358,-00005.127363,-00000.287046,00001.129024,00001.535678,00000.441583,00000.173738
0000000001350,00000.522419,00000.064098,00001.245271,00000.043955,00002.051792,00002.076472,00001.742571,00001.474344,00001.222207,00001.655054,-00005.106836,-00000.292614,00001.124395,00001.523185,00000.442310,00000.170033
0000000001351,00000.522756,00000.063682,00001.243989,00000.043952,00002.051984,00002.076619,00001.741790,00001.473631,00001.221686,00001.655726,-00005.094254,-00000.293437,00001.123085,00001.518986,00000.443245,00000.169713
0000000001352,00000.523386,00000.062557,00001.241130,00000.043947,00002.051963,00002.076200,00001.740732,00001.471815,00001.220693,00001.656219,-00005.065590,-00000.290798,00001.121516,00001.512603,00000.444814,00000.170598
0000000001353,00000.523261,00000.061484,00001.239934,00000.043944,00002.052168,00002.075266,00001.740451,00001.470369,00001.220224,00001.656460,-00005.053811,-00000.288666,00001.120458,00001.509539,00000.444747,00000.172054
0000000001354,00000.522727,00000.059960,00001.237315,00000.043940,00002.052483,00002.073597,00001.739229,00001.469039,00001.219447,00001.656481,-00005.034425,-00000.283472,00001.119642,00001.505286,00000.444278,00000.173679
0000000001355,00000.522998,00000.059025,00001.237988,00000.043936,00002.052387,00002.072901,00001.738551,00001.469357,00001.220237,00001.657224,-00005.009941,-00000.273971,00001.123301,00001.503842,00000.446057,00000.170709
0000000001356,00000.523359,00000.058629,00001.238480,00000.043935,00002.052125,00002.072214,00001.738827,00001.469739,00001.220945,00001.657345,-00004.993833,-00000.266413,00001.125470,00001.502688,00000.446322,00000.168836
0000000001357,00000.523174,00000.057529,00001.239705,00000.043932,00002.052809,00002.070999,00001.739661,00001.469953,00001.222238,00001.657960,-00004.964864,-00000.251467,00001.125723,00001.498728,00000.446345,00000.168763
0000000001358,00000.523062,00000.056827,00001.240445,00000.043931,00002.052963,00002.070099,00001.740224,00001.470221,00001.223189,00001.658396,-00004.951459,-00000.245256,00001.124352,00001.496032,00000.448712,00000.171524
0000000001359,00000.523015,00000.056231,00001.241474,00000.043930,00002.053028,00002.069238,00001.741459,00001.471223,00001.224064,00001.658484,-00004.937663,-00000.238381,00001.124124,00001.493543,00000.452895,00000.174142
0000000001360,00000.523243,00000.055488,00001.242979,00000.043928,00002.052852,00002.067740,00001.743352,00001.474845,00001.225256,00001.658566,-00004.909065,-00000.222888,00001.125666,00001.487315,00000.462099,00000.174731
0000000001361,00000.523800,00000.054493,00001.244261,00000.043926,00002.053064,00002.066827,00001.744964,00001.478290,00001.226634,00001.658637,-00004.889073,-00000.208972,00001.126978,00001.481287,00000.469934,00000.171242
0000000001362,00000.523995,00000.054013,00001.245027,00000.043925,00002.053205,00002.066581,00001.745937,00001.480442,00001.227992,00001.658643,-00004.878938,-00000.202265,00001.128172,00001.479198,00000.472864,00000.170094
0000000001363,00000.524440,00000.054688,00001.249995,00000.044286,00002.053365,00002.066203,00001.748252,00001.483418,00001.231865,00001.659427,-00004.855444,-00000.189965,00001.130926,00001.480545,00000.479098,00000.172736
0000000001364,00000.525041,00000.055410,00001.252958,00000.044286,00002.053399,00002.066423,00001.749156,00001.486260,00001.233923,00001.659782,-00004.844843,-00000.184664,00001.132095,00001.483329,00000.482807,00000.176665
0000000001365,00000.526056,00000.055515,00001.256747,00000.044231,00002.053168,00002.066794,00001.750630,00001.489822,00001.236552,00001.660034,-00004.834401,-00000.180786,00001.132451,00001.485512,00000.490465,00000.183047
0000000001366,00000.527264,00000.055699,00001.258388,00000.044184,00002.053617,00002.067731,00001.752319,00001.490740,00001.238641,00001.660664,-00004.831101,-00000.179273,00001.132471,00001.485447,00000.493679,00000.183347
0000000001367,00000.531214,00000.057212,00001.262821,00000.047410,00002.054079,00002.070447,00001.755137,00001.494362,00001.243833,00001.661148,-00004.821977,-00000.173657,00001.134222,00001.485865,00000.498632,00000.180753
0000000001368,00000.534939,00000.059588,00001.267682,00000.050881,00002.054835,00002.071671,00001.758261,00001.497807,00001.250430,00001.661560,-00004.804413,-00000.166699,00001.136802,00001.490574,00000.503212,00000.179271
0000000001369,00000.536939,00000.060663,00001.269657,00000.052241,00002.055155,00002.072173,00001.759570,00001.499794,00001.252987,00001.662148,-00004.794451,-00000.164005,00001.137162,00001.492607,00000.506170,00000.180797
0000000001370,00000.540539,00000.062889,00001.272776,00000.055357,00002.055388,00002.072778,00001.762398,00001.503157,00001.258586,00001.662412,-00004.777353,-00000.162473,00001.136765,00001.496314,00000.511805,00000.180033
0000000001371,00000.542933,00000.064005,00001.274001,00000.057440,00002.055663,00002.073292,00001.763857,00001.504581,00001.261969,00001.662518,-00004.771214,-00000.163446,00001.136420,00001.497633,00000.515964,00000.177483
0000000001372,00000.548544,00000.067185,00001.276837,00000.063410,00002.056546,00002.075181,00001.766773,00001.507958,00001.269134,00001.663089,-00004.757934,-00000.163086,00001.139036,00001.498415,00000.525222,00000.170682
0000000001373,00000.551747,00000.069192,00001.278781,00000.067199,00002.056735,00002.076163,00001.767890,00001.509855,00001.272527,00001.663552,-00004.746347,-00000.160716,00001.141110,00001.496875,00000.528746,00000.167251
0000000001374,00000.556047,00000.072326,00001.280907,00000.073895,00002.057096,00002.076537,00001.769118,00001.512448,00001.277759,00001.664695,-00004.718262,-00000.156046,00001.144117,00001.492691,00000.534653,00000.162697
0000000001375,00000.557587,00000.073124,00001.281146,00000.076487,00002.057266,00002.076345,00001.769300,00001.513590,00001.278612,00001.664607,-00004.701633,-00000.154150,00001.143976,00001.490917,00000.537072,00000.161832
0000000001376,00000.559930,00000.074222,00001.280017,00000.080713,00002.057185,00002.074153,00001.768867,00001.514539,00001.279674,00001.664505,-00004.662784,-00000.148279,00001.142928,00001.485442,00000.542103,00000.158809
0000000001377,00000.562288,00000.075158,00001.276880,00000.083586,00002.057479,00002.071561,00001.768136,00001.514984,00001.278402,00001.664418,-00004.624632,-00000.144370,00001.142037,00001.478605,00000.547837,00000.155148
0000000001378,00000.563298,00000.075825,00001.275051,00000.084641,00002.057624,00002.070207,00001.767610,00001.515185,00001.277156,00001.664398,-00004.609314,-00000.143425,00001.141627,00001.473680,00000.551487,00000.153300
0000000001379,00000.565518,00000.076159,00001.270838,00000.085841,00002.057127,00002.067839,00001.765977,00001.515534,00001.274444,00001.663964,-00004.583829,-00000.142051,00001.138389,00001.462424,00000.559817,00000.147918
0000000001380,00000.565949,00000.076632,00001.268832,00000.085681,00002.056907,00002.065662,00001.765277,00001.515323,00001.273347,00001.663555,-00004.571946,-00000.140532,00001.136694,00001.457230,00000.563336,00000.144460
0000000001381,00000.566686,00000.077209,00001.265544,00000.079471,00002.056517,00002.061793,00001.763992,00001.515289,00001.270839,00001.662884,-00004.549116,-00000.137049,00001.133827,00001.449509,00000.569540,00000.136040
0000000001382,00000.567313,00000.078063,00001.263107,00000.074184,00002.056547,00002.057773,00001.763623,00001.514897,00001.269066,00001.662675,-00004.530769,-00000.134809,00001.129935,00001.441847,00000.573371,00000.128146
0000000001383,00000.567581,00000.078452,00001.262008,00000.071885,00002.056400,00002.056730,00001.763431,00001.515103,00001.268551,00001.662803,-00004.521564,-00000.133069,00001.128231,00001.438667,00000.573157,00000.124247
0000000001384,00000.567713,00000.079484,00001.260460,00000.067726,00002.056448,00002.054189,00001.762420,00001.515101,00001.269295,00001.662969,-00004.504049,-00000.128881,00001.125896,00001.435883,00000.573185,00000.115204
0000000001385,00000.567577,00000.080134,00001.259993,00000.068391,00002.056649,00002.053091,00001.762369,00001.515314,00001.270102,00001.663017,-00004.493833,-00000.125382,00001.125924,00001.435361,00000.574869,00000.111621
0000000001386,00000.567709,00000.081279,00001.259108,00000.065840,00002.057023,00002.050729,00001.762604,00001.515644,00001.270253,00001.663877,-00004.475362,-00000.117622,00001.125746,00001.430166,00000.577907,00000.105181
0000000001387,00000.568184,00000.081528,00001.257629,00000.062942,00002.056978,00002.048717,00001.763530,00001.515925,00001.270744,00001.663158,-00004.458912,-00000.111015,00001.123781,00001.424292,00000.578317,00000.100061
0000000001388,00000.569135,00000.081647,00001.256966,00000.064137,00002.056762,00002.048408,00001.764094,00001.516396,00001.272024,00001.663233,-00004.449969,-00000.108392,00001.123389,00001.423585,00000.578871,00000.097968
0000000001389,00000.572301,00000.083292,00001.256531,00000.066209,00002.057118,00002.047105,00001.765524,00001.517290,00001.276243,00001.663698,-00004.430039,-00000.105698,00001.122863,00001.423406,00000.580589,00000.091019
0000000001390,00000.574414,00000.084714,00001.255969,00000.068559,00002.057270,00002.046528,00001.766749,00001.517348,00001.279068,00001.663676,-00004.419540,-00000.105520,00001.121249,00001.422007,00000.581341,00000.086296
0000000001391,00000.578609,00000.087355,00001.254956,00000.074690,00002.057551,00002.045142,00001.768872,00001.517739,00001.284053,00001.663712,-00004.401233,-00000.103253,00001.119952,00001.420611,00000.583054,00000.076366
0000000001392,00000.580702,00000.088935,00001.254502,00000.077642,00002.058044,00002.044742,00001.769792,00001.518083,00001.286613,00001.663759,-00004.392223,-00000.101289,00001.119402,00001.421272,00000.584384,00000.071953
0000000001393,00000.584324,00000.094575,00001.254433,00000.083148,00002.059298,00002.043984,00001.772188,00001.519090,00001.292653,00001.664146,-00004.369270,-00000.098563,00001.119831,00001.425790,00000.586008,00000.064156
0000000001394,00000.587771,00000.100103,00001.254374,00000.088198,00002.060003,00002.043701,00001.774954,00001.520672,00001.300334,00001.664838,-00004.347192,-00000.098418,00001.120923,00001.429274,00000.588478,00000.059333
0000000001395,00000.589467,00000.102156,00001.253979,00000.090413,00002.059983,00002.043761,00001.775806,00001.521235,00001.303571,00001.664772,-00004.338198,-00000.098363,00001.120677,00001.428642,00000.589769,00000.058111
0000000001396,00000.591067,00000.104083,00001.253962,00000.092497,00002.060604,00002.043823,00001.776946,00001.521657,00001.306873,00001.665064,-00004.329847,-00000.096481,00001.120401,00001.427161,00000.590944,00000.056677
0000000001397,00000.593874,00000.107834,00001.253973,00000.096520,00002.061478,00002.043927,00001.778641,00001.523220,00001.313166,00001.665619,-00004.310729,-00000.089753,00001.122133,00001.428265,00000.594495,00000.051152
0000000001398,00000.596989,00000.111390,00001.253983,00000.099944,00002.062221,00002.043653,00001.780447,00001.524551,00001.318885,00001.666092,-00004.292639,-00000.085476,00001.123245,00001.432106,00000.599331,00000.045722
0000000001399,00000.598761,00000.112965,00001.253639,00000.101673,00002.062781,00002.043381,00001.781645,00001.525162,00001.321454,00001.665952,-00004.284849,-00000.084473,00001.123157,00001.433786,00000.601680,00000.043662
0000000001400,00000.601875,00000.115758,00001.252973,00000.104694,00002.063331,00002.042825,00001.783367,00001.525479,00001.324490,00001.666012,-00004.269519,-00000.082433,00001.123028,00001.435356,00000.605085,00000.041160
0000000001401,00000.603241,00000.116994,00001.252292,00000.105287,00002.063031,00002.042186,00001.783186,00001.525615,00001.323600,00001.665857,-00004.261589,-00000.081007,00001.124125,00001.436455,00000.606953,00000.039543
0000000001402,00000.604600,00000.117736,00001.249287,00000.103417,00002.062818,00002.039269,00001.781051,00001.524413,00001.319061,00001.665569,-00004.250081,-00000.081296,00001.125303,00001.438353,00000.609574,00000.035114
0000000001403,00000.605022,00000.117311,00001.247369,00000.098895,00002.062546,00002.037811,00001.779566,00001.523855,00001.315464,00001.665073,-00004.248222,-00000.082900,00001.125458,00001.438447,00000.610035,00000.032717
0000000001404,00000.606479,00000.116556,00001.244007,00000.090719,00002.061680,00002.035181,00001.777244,00001.522552,00001.309595,00001.664176,-00004.245232,-00000.084721,00001.126076,00001.439686,00000.610746,00000.029666
0000000001405,00000.607719,00000.115912,00001.240420,00000.083760,00002.060217,00002.032943,00001.774904,00001.521080,00001.304599,00001.663050,-00004.240872,-00000.083370,00001.126601,00001.441829,00000.611715,00000.026343
0000000001406,00000.608252,00000.115627,00001.238858,00000.080625,00002.059765,00002.031936,00001.774237,00001.520843,00001.302248,00001.662705,-00004.238146,-00000.082220,00001.126637,00001.442398,00000.611221,00000.023997
0000000001407,00000.608412,00000.115727,00001.237366,00000.077835,00002.059697,00002.030674,00001.774364,00001.520190,00001.300709,00001.662453,-00004.236072,-00000.081494,00001.126323,00001.441477,00000.610363,00000.022063
0000000001408,00000.609365,00000.115207,00001.234766,00000.075331,00002.058892,00002.028380,00001.774629,00001.519070,00001.299211,00001.661583,-00004.229447,-00000.078083,00001.125724,00001.440089,00000.608123,00000.020596
0000000001409,00000.610177,00000.115490,00001.232553,00000.078278,00002.059295,00002.026427,00001.775218,00001.518841,00001.299750,00001.661205,-00004.216188,-00000.069374,00001.125576,00001.441447,00000.606943,00000.022612
0000000001410,00000.610505,00000.115623,00001.231589,00000.080521,00002.059688,00002.025905,00001.776058,00001.518741,00001.300786,00001.660992,-00004.207889,-00000.064797,00001.125335,00001.442398,00000.606784,00000.024686
0000000001411,00000.611510,00000.116206,00001.229848,00000.084873,00002.059972,00002.024683,00001.777885,00001.518924,00001.302179,00001.660702,-00004.192756,-00000.058426,00001.124520,00001.442687,00000.606165,00000.029722
0000000001412,00000.612127,00000.116661,00001.229065,00000.087007,00002.060292,00002.023966,00001.778886,00001.518790,00001.302560,00001.660609,-00004.185888,-00000.055757,00001.123584,00001.440630,00000.604974,00000.031889
0000000001413,00000.613253,00000.117453,00001.227699,00000.090757,00002.060124,00002.023395,00001.780293,00001.519329,00001.304052,00001.660375,-00004.166409,-00000.046741,00001.123029,00001.437191,00000.603898,00000.035854
0000000001414,00000.613402,00000.118161,00001.227468,00000.092404,00002.060058,00002.023119,00001.781074,00001.519576,00001.304737,00001.660244,-00004.153322,-00000.039788,00001.122980,00001.435808,00000.603591,00000.038385
0000000001415,00000.614338,00000.119093,00001.227065,00000.096077,00002.060287,00002.022674,00001.782518,00001.520723,00001.308445,00001.660065,-00004.125625,-00000.028067,00001.121064,00001.433086,00000.603810,00000.047189
0000000001416,00000.614410,00000.120975,00001.226723,00000.100293,00002.060845,00002.021569,00001.785199,00001.524240,00001.314141,00001.659913,-00004.098055,-00000.020628,00001.117255,00001.430406,00000.604722,00000.058312
0000000001417,00000.614788,00000.122557,00001.227662,00000.102348,00002.061099,00002.021108,00001.786065,00001.527558,00001.317414,00001.659864,-00004.083033,-00000.017495,00001.116493,00001.430329,00000.605115,00000.063243
0000000001418,00000.615881,00000.129002,00001.230133,00000.107808,00002.062262,00002.020236,00001.788218,00001.533686,00001.324679,00001.659741,-00004.050550,-00000.013443,00001.115178,00001.430599,00000.604382,00000.070890
0000000001419,00000.616955,00000.132216,00001.231610,00000.110766,00002.063122,00002.020191,00001.789115,00001.536915,00001.327873,00001.660035,-00004.036563,-00000.012788,00001.113107,00001.429070,00000.603673,00000.073718
0000000001420,00000.618814,00000.140490,00001.233494,00000.116063,00002.064710,00002.020181,00001.790815,00001.542014,00001.334308,00001.660250,-00004.013167,-00000.010160,00001.110119,00001.424810,00000.602791,00000.079082
0000000001421,00000.620397,00000.150437,00001.236186,00000.120572,00002.066787,00002.020899,00001.792988,00001.546718,00001.340512,00001.661158,-00003.989622,-00000.007198,00001.108301,00001.422636,00000.602403,00000.083285
0000000001422,00000.620719,00000.154998,00001.237575,00000.122586,00002.067716,00002.021274,00001.793975,00001.549048,00001.343250,00001.661804,-00003.979172,-00000.006233,00001.106417,00001.421689,00000.602610,00000.085890
0000000001423,00000.621656,00000.162787,00001.239298,00000.126487,00002.069709,00002.021103,00001.796403,00001.552343,00001.348487,00001.662119,-00003.960319,-00000.005669,00001.098982,00001.417802,00000.603337,00000.092709
0000000001424,00000.621857,00000.166421,00001.240066,00000.127987,00002.070787,00002.020994,00001.797809,00001.553769,00001.350960,00001.662590,-00003.951064,-00000.004854,00001.095455,00001.416050,00000.603444,00000.096117
0000000001425,00000.622262,00000.172875,00001.241419,00000.130723,00002.071960,00002.020865,00001.799667,00001.555999,00001.355413,00001.662788,-00003.928772,-00000.004132,00001.089650,00001.412276,00000.601508,00000.101778
0000000001426,00000.621682,00000.175734,00001.241650,00000.131965,00002.072487,00002.020417,00001.800176,00001.556811,00001.357049,00001.662923,-00003.916635,-00000.004942,00001.088407,00001.410586,00000.600292,00000.104490
0000000001427,00000.620299,00000.179715,00001.241315,00000.133021,00002.073045,00002.018922,00001.800594,00001.555324,00001.358783,00001.662346,-00003.897648,-00000.007472,00001.086190,00001.407624,00000.597736,00000.109269
0000000001428,00000.618762,00000.180560,00001.240755,00000.132912,00002.072722,00002.017867,00001.800527,00001.553092,00001.358186,00001.662065,-00003.887958,-00000.006917,00001.084840,00001.405964,00000.596024,00000.110283
0000000001429,00000.615274,00000.182734,00001.239828,00000.132739,00002.072156,00002.015300,00001.800167,00001.548530,00001.356848,00001.661252,-00003.865617,-00000.002986,00001.082065,00001.405866,00000.591564,00000.109847
0000000001430,00000.612667,00000.185673,00001.239039,00000.132591,00002.071675,00002.013115,00001.799498,00001.545009,00001.355709,00001.660923,-00003.838980,-00000.002542,00001.076437,00001.405782,00000.590306,00000.109475
0000000001431,00000.611295,00000.187136,00001.239075,00000.132533,00002.071828,00002.012170,00001.799641,00001.543289,00001.355054,00001.660817,-00003.825877,-00000.003465,00001.073978,00001.405730,00000.588856,00000.108597
0000000001432,00000.608917,00000.189784,00001.239124,00000.131691,00002.072121,00002.010450,00001.799050,00001.540910,00001.354182,00001.660915,-00003.802247,-00000.006940,00001.069552,00001.404941,00000.580744,00000.106960
0000000001433,00000.608250,00000.190977,00001.239138,00000.131687,00002.072260,00002.009672,00001.798752,00001.539823,00001.353968,00001.661130,-00003.789759,-00000.008666,00001.065700,00001.402748,00000.576581,00000.106204
0000000001434,00000.607618,00000.192037,00001.239528,00000.131699,00002.072733,00002.008986,00001.798910,00001.538885,00001.354165,00001.661362,-00003.774150,-00000.010262,00001.061795,00001.399190,00000.572388,00000.105930
0000000001435,00000.606513,00000.194319,00001.239872,00000.132432,00002.073255,00002.007740,00001.799153,00001.539338,00001.354877,00001.661379,-00003.735718,-00000.012364,00001.054465,00001.393932,00000.562735,00000.105778
0000000001436,00000.605571,00000.197712,00001.240527,00000.133781,00002.074061,00002.006680,00001.799360,00001.542626,00001.356933,00001.661757,-00003.701913,-00000.014879,00001.045686,00001.389818,00000.550164,00000.104198
0000000001437,00000.604770,00000.201689,00001.242173,00000.135293,00002.075111,00002.005414,00001.799537,00001.545425,00001.358684,00001.662441,-00003.676400,-00000.021373,00001.037123,00001.387768,00000.533657,00000.101039
0000000001438,00000.604419,00000.204602,00001.243478,00000.135778,00002.075810,00002.005005,00001.799604,00001.547097,00001.359639,00001.663319,-00003.664938,-00000.024958,00001.033115,00001.386879,00000.526342,00000.098896
0000000001439,00000.603789,00000.210820,00001.245412,00000.137355,00002.076962,00002.003988,00001.799381,00001.549594,00001.361350,00001.664134,-00003.639844,-00000.030317,00001.026422,00001.384903,00000.514103,00000.093260
0000000001440,00000.603870,00000.214473,00001.246420,00000.138038,00002.077074,00002.003782,00001.799506,00001.550817,00001.362115,00001.664500,-00003.625940,-00000.032173,00001.022178,00001.382722,00000.508314,00000.089436
0000000001441,00000.603321,00000.223214,00001.247916,00000.139279,00002.078038,00002.002947,00001.799660,00001.552761,00001.363458,00001.665140,-00003.596487,-00000.034282,00001.013483,00001.377010,00000.498031,00000.082667
0000000001442,00000.602855,00000.234282,00001.249915,00000.140699,00002.079222,00002.002236,00001.800155,00001.554415,00001.365327,00001.665684,-00003.561981,-00000.036803,00001.000640,00001.370333,00000.491453,00000.079082
0000000001443,00000.602308,00000.239119,00001.250685,00000.141123,00002.079952,00002.001758,00001.800499,00001.555432,00001.366137,00001.665921,-00003.545079,-00000.038438,00000.992002,00001.365534,00000.489278,00000.077825
0000000001444,00000.601991,00000.247097,00001.251547,00000.141906,00002.080851,00002.000862,00001.800869,00001.556690,00001.367971,00001.665986,-00003.516403,-00000.042880,00000.970017,00001.351494,00000.485453,00000.075322
0000000001445,00000.601447,00000.251055,00001.252031,00000.142264,00002.081813,00002.000444,00001.801297,00001.557332,00001.368998,00001.666178,-00003.502951,-00000.045276,00000.960597,00001.345074,00000.483047,00000.072543
0000000001446,00000.600533,00000.259073,00001.252329,00000.142877,00002.082798,00001.999743,00001.801548,00001.557944,00001.370769,00001.665843,-00003.481991,-00000.050516,00000.943645,00001.334077,00000.480512,00000.066835
0000000001447,00000.599756,00000.265898,00001.253309,00000.143399,00002.083637,00001.999871,00001.802125,00001.558828,00001.373002,00001.665919,-00003.463059,-00000.055702,00000.922321,00001.319273,00000.481255,00000.063790
0000000001448,00000.599066,00000.269465,00001.253799,00000.143622,00002.084383,00001.999567,00001.802714,00001.559085,00001.373960,00001.665820,-00003.449976,-00000.056661,00000.913232,00001.310817,00000.481032,00000.062657
0000000001449,00000.598507,00000.275833,00001.255648,00000.144396,00002.085712,00001.998996,00001.803117,00001.559799,00001.376082,00001.665900,-00003.416214,-00000.056580,00000.901509,00001.296207,00000.481698,00000.061321
0000000001450,00000.598030,00000.282343,00001.257949,00000.146143,00002.086843,00001.998872,00001.803098,00001.560407,00001.378250,00001.666331,-00003.384933,-00000.059050,00000.883911,00001.283769,00000.485168,00000.059821
0000000001451,00000.597787,00000.285374,00001.258770,00000.146921,00002.087345,00001.998593,00001.803289,00001.560458,00001.379559,00001.666088,-00003.374064,-00000.061620,00000.873656,00001.278081,00000.486861,00000.059706
0000000001452,00000.597055,00000.289740,00001.259518,00000.147204,00002.087508,00001.998167,00001.803244,00001.560968,00001.380848,00001.665765,-00003.355944,-00000.066243,00000.858749,00001.266887,00000.487023,00000.061712
0000000001453,00000.595343,00000.293818,00001.259066,00000.145994,00002.087646,00001.996716,00001.802843,00001.560314,00001.380857,00001.665491,-00003.339792,-00000.070905,00000.847147,00001.255544,00000.487162,00000.062693
0000000001454,00000.594608,00000.295266,00001.258692,00000.145265,00002.087717,00001.996324,00001.802646,00001.559672,00001.380528,00001.665045,-00003.332856,-00000.073395,00000.840522,00001.249815,00000.487294,00000.063120
0000000001455,00000.593260,00000.297798,00001.258000,00000.143255,00002.087824,00001.994784,00001.802334,00001.554494,00001.379134,00001.664877,-00003.311068,-00000.076993,00000.826551,00001.236657,00000.487755,00000.063892
0000000001456,00000.592645,00000.299266,00001.257682,00000.142744,00002.087864,00001.993703,00001.801848,00001.552405,00001.378493,00001.664749,-00003.295850,-00000.077055,00000.820748,00001.230843,00000.488831,00000.063515
0000000001457,00000.591589,00000.301928,00001.256415,00000.142560,00002.087950,00001.991102,00001.801654,00001.547945,00001.377401,00001.663900,-00003.260699,-00000.076480,00000.806089,00001.218692,00000.492328,00000.060601
0000000001458,00000.591136,00000.303131,00001.256238,00000.142827,00002.088356,00001.989980,00001.801533,00001.548148,00001.377298,00001.663579,-00003.242446,-00000.076619,00000.797331,00001.211620,00000.494271,00000.058177
0000000001459,00000.591053,00000.304195,00001.256061,00000.143129,00002.088385,00001.989250,00001.801490,00001.548865,00001.377196,00001.663540,-00003.224608,-00000.076717,00000.789257,00001.204720,00000.495305,00000.056668
0000000001460,00000.590667,00000.305218,00001.255548,00000.143356,00002.088368,00001.988295,00001.801386,00001.549038,00001.376746,00001.663630,-00003.206167,-00000.077198,00000.782526,00001.198700,00000.495508,00000.056057
0000000001461,00000.590234,00000.306124,00001.255035,00000.143613,00002.088393,00001.986948,00001.801349,00001.549285,00001.376660,00001.663234,-00003.187717,-00000.077281,00000.778193,00001.194277,00000.495663,00000.055498
0000000001462,00000.589905,00000.307358,00001.254598,00000.143807,00002.088379,00001.986135,00001.801261,00001.549432,00001.376639,00001.662947,-00003.169478,-00000.076965,00000.774277,00001.190603,00000.495836,00000.054614
0000000001463,00000.589536,00000.308129,00001.254161,00000.144025,00002.088400,00001.985351,00001.800867,00001.550005,00001.376203,00001.662973,-00003.153045,-00000.077399,00000.767323,00001.186475,00000.495968,00000.053413
0000000001464,00000.589619,00000.308817,00001.253789,00000.144190,00002.088388,00001.985022,00001.800429,00001.550494,00001.376185,00001.663092,-00003.140059,-00000.078218,00000.759273,00001.181533,00000.496478,00000.052298
0000000001465,00000.589305,00000.309474,00001.253780,00000.144376,00002.088768,00001.984355,00001.800457,00001.550982,00001.376177,00001.662751,-00003.129697,-00000.078588,00000.753353,00001.176931,00000.496590,00000.050912
0000000001466,00000.589013,00000.310059,00001.254189,00000.144154,00002.088758,00001.983711,00001.800447,00001.551397,00001.376162,00001.662489,-00003.120456,-00000.078922,00000.748677,00001.172361,00000.495936,00000.049600
0000000001467,00000.589109,00000.310255,00001.254907,00000.143950,00002.088719,00001.983143,00001.800107,00001.551813,00001.376154,00001.662199,-00003.110547,-00000.079237,00000.743637,00001.167355,00000.494943,00000.047332
0000000001468,00000.588860,00000.310754,00001.255981,00000.143760,00002.089073,00001.982596,00001.800099,00001.552166,00001.376142,00001.661976,-00003.099777,-00000.079884,00000.737479,00001.162014,00000.493660,00000.045127
0000000001469,00000.588941,00000.311283,00001.256955,00000.143586,00002.089040,00001.982112,00001.800172,00001.552520,00001.376498,00001.661729,-00003.089527,-00000.080877,00000.729198,00001.155938,00000.492089,00000.042833
0000000001470,00000.588730,00000.311345,00001.258232,00000.143062,00002.089342,00001.981283,00001.799802,00001.552821,00001.376125,00001.661540,-00003.079271,-00000.082154,00000.719240,00001.148851,00000.490635,00000.040593
0000000001471,00000.588799,00000.311433,00001.259061,00000.142914,00002.089676,00001.980872,00001.799865,00001.553122,00001.376428,00001.661329,-00003.068369,-00000.084088,00000.708200,00001.140776,00000.489298,00000.038641
0000000001472,00000.588619,00000.311848,00001.260511,00000.142468,00002.090296,00001.980166,00001.799913,00001.553741,00001.376836,00001.661168,-00003.056372,-00000.086264,00000.697908,00001.131841,00000.488785,00000.036734
0000000001473,00000.588678,00000.312286,00001.262305,00000.142342,00002.090943,00001.979816,00001.799966,00001.554360,00001.377094,00001.661352,-00003.044914,-00000.088998,00000.688147,00001.123879,00000.488735,00000.035072
0000000001474,00000.588887,00000.313002,00001.264265,00000.142325,00002.091108,00001.979940,00001.800007,00001.555250,00001.377804,00001.661214,-00003.033250,-00000.092301,00000.677934,00001.115547,00000.489387,00000.033448
0000000001475,00000.588937,00000.314100,00001.266518,00000.142218,00002.091659,00001.979279,00001.800053,00001.555777,00001.378387,00001.661008,-00003.020957,-00000.095718,00000.666722,00001.106954,00000.490795,00000.032396
0000000001476,00000.589115,00000.315073,00001.268911,00000.142203,00002.092162,00001.979023,00001.800087,00001.556535,00001.378991,00001.661254,-00003.008125,-00000.098530,00000.655126,00001.099136,00000.492439,00000.031740
0000000001477,00000.589158,00000.316008,00001.271192,00000.142112,00002.092631,00001.978823,00001.800126,00001.557346,00001.379487,00001.661078,-00002.995120,-00000.100713,00000.644130,00001.091821,00000.494001,00000.030844
0000000001478,00000.589310,00000.316836,00001.273230,00000.142463,00002.094873,00001.978967,00001.800156,00001.557991,00001.380364,00001.660924,-00002.980931,-00000.103106,00000.633170,00001.084802,00000.495762,00000.030648
