0000000001308,00001.438053,00000.587197,00001.346793,00001.293675,00002.159041,00001.898680,00001.922226,00002.043785,00001.685031,00001.849472,-00000.392690,-00000.016585,-00000.566556,-00000.024146,00000.070519,-00000.026454
0000000001309,00001.437007,00000.586664,00001.346761,00001.292439,00002.158813,00001.898203,00001.922214,00002.043397,00001.684909,00001.849091,-00000.392921,-00000.016439,-00000.566494,-00000.023812,00000.071079,-00000.026292
0000000001310,00001.436085,00000.586226,00001.346786,00001.291409,00002.158701,00001.897511,00001.922272,00002.043169,00001.684431,00001.849090,-00000.393069,-00000.016296,-00000.566114,-00000.023458,00000.071642,-00000.026149
0000000001311,00001.435195,00000.585409,00001.346396,00001.290357,00002.158144,00001.897105,00001.921899,00002.042839,00001.683964,00001.848402,-00000.393266,-00000.016172,-00000.565699,-00000.022810,00000.072119,-00000.026010
0000000001312,00001.434411,00000.584673,00001.346418,00001.289117,00002.157685,00001.896879,00001.921585,00002.043008,00001.683558,00001.848039,-00000.393392,-00000.016049,-00000.565375,-00000.022146,00000.072598,-00000.025888
0000000001313,00001.433652,00000.583978,00001.346449,00001.287859,00002.157574,00001.896170,00001.921268,00002.042364,00001.683160,00001.847816,-00000.393923,-00000.015581,-00000.565022,-00000.021595,00000.073367,-00000.025771
0000000001314,00001.432985,00000.583351,00001.346105,00001.286803,00002.157184,00001.895614,00001.921364,00002.041782,00001.682814,00001.847507,-00000.394393,-00000.015477,-00000.564384,-00000.021030,00000.074138,-00000.025667
0000000001315,00001.432339,00000.582760,00001.345768,00001.285732,00002.156726,00001.895374,00001.921093,00002.041596,00001.682476,00001.846955,-00000.394845,-00000.015441,-00000.563720,-00000.020561,00000.075155,-00000.025566
0000000001316,00001.431771,00000.582226,00001.345838,00001.284834,00002.156394,00001.895264,00001.920812,00002.041464,00001.681818,00001.846691,-00000.395245,-00000.015352,-00000.563177,-00000.020080,00000.076174,-00000.025478
0000000001317,00001.431222,00000.581723,00001.345551,00001.284284,00002.156004,00001.895059,00001.920582,00002.040943,00001.681531,00001.846221,-00000.395629,-00000.015321,-00000.562611,-00000.019680,00000.077040,-00000.025755
0000000001318,00001.430738,00000.581268,00001.345248,00001.283520,00002.155721,00001.894966,00001.920343,00002.040467,00001.681334,00001.845634,-00000.395970,-00000.015246,-00000.562149,-00000.019271,00000.077908,-00000.026043
0000000001319,00001.430270,00000.580477,00001.345004,00001.283052,00002.155390,00001.894791,00001.920147,00002.040387,00001.681089,00001.845597,-00000.396297,-00000.015220,-00000.561668,-00000.018568,00000.078645,-00000.026279
0000000001320,00001.430221,00000.580090,00001.345108,00001.282401,00002.155149,00001.894712,00001.919943,00002.040345,00001.680921,00001.845460,-00000.396587,-00000.015156,-00000.561274,-00000.017856,00000.079383,-00000.026524
0000000001321,00001.429460,00000.579779,00001.344901,00001.281640,00002.154867,00001.894563,00001.919776,00002.039914,00001.680712,00001.845428,-00000.397229,-00000.015133,-00000.560865,-00000.017258,00000.080374,-00000.026725
0000000001322,00001.429055,00000.579450,00001.344627,00001.281449,00002.154662,00001.894132,00001.919966,00002.039515,00001.680570,00001.845311,-00000.397475,-00000.015079,-00000.560530,-00000.016652,00000.081365,-00000.026933
0000000001323,00001.428770,00000.579185,00001.344450,00001.280801,00002.154784,00001.893643,00001.920186,00002.039148,00001.680392,00001.845284,-00000.397659,-00000.015060,-00000.559818,-00000.016143,00000.082208,-00000.027104
0000000001324,00001.428426,00000.578542,00001.344217,00001.280638,00002.154610,00001.893640,00001.919985,00002.039171,00001.680270,00001.845185,-00000.397869,-00000.015013,-00000.559170,-00000.015627,00000.083052,-00000.027282
0000000001325,00001.428183,00000.577954,00001.344067,00001.280449,00002.154351,00001.893586,00001.919810,00002.039221,00001.680119,00001.844799,-00000.398025,-00000.014997,-00000.558564,-00000.015193,00000.083770,-00000.027428
0000000001326,00001.427890,00000.577769,00001.343868,00001.279948,00002.154566,00001.893220,00001.920001,00002.038879,00001.680016,00001.844715,-00000.398204,-00000.014958,-00000.558013,-00000.014755,00000.084489,-00000.027578
0000000001327,00001.427684,00000.577631,00001.343740,00001.279787,00002.154345,00001.893174,00001.919852,00002.038921,00001.679887,00001.844749,-00000.398337,-00000.014944,-00000.557497,-00000.014385,00000.085100,-00000.027703
0000000001328,00001.427434,00000.577474,00001.343571,00001.280086,00002.154165,00001.893225,00001.919652,00002.038992,00001.679799,00001.844677,-00000.398489,-00000.014910,-00000.557027,-00000.014012,00000.086074,-00000.027831
0000000001329,00001.427258,00000.577357,00001.343462,00001.280312,00002.154340,00001.893187,00001.919888,00002.039029,00001.679689,00001.845069,-00000.398602,-00000.014899,-00000.556588,-00000.013697,00000.086594,-00000.027937
0000000001330,00001.427046,00000.577223,00001.343318,00001.280566,00002.154550,00001.893230,00001.919718,00002.039089,00001.679614,00001.845371,-00000.398732,-00000.014870,-00000.556189,-00000.013379,00000.087424,-00000.028046
0000000001331,00001.426896,00000.577123,00001.343588,00001.281122,00002.154699,00001.893560,00001.919919,00002.039483,00001.679884,00001.845705,-00000.398828,-00000.014860,-00000.555815,-00000.012749,00000.087867,-00000.028136
0000000001332,00001.426715,00000.577009,00001.343466,00001.281701,00002.154877,00001.893597,00001.919774,00002.039897,00001.679820,00001.845961,-00000.398938,-00000.014835,-00000.555475,-00000.012478,00000.088210,-00000.028229
0000000001333,00001.426588,00000.576924,00001.343696,00001.282173,00002.155004,00001.893878,00001.919582,00002.040232,00001.680050,00001.846245,-00000.399020,-00000.014827,-00000.555156,-00000.012304,00000.088950,-00000.028306
0000000001334,00001.426796,00000.576827,00001.343954,00001.283392,00002.155156,00001.894272,00001.919822,00002.040585,00001.680358,00001.846464,-00000.399114,-00000.014443,-00000.554867,-00000.012074,00000.089242,-00000.028385
0000000001335,00001.427051,00000.576754,00001.343787,00001.284520,00002.155264,00001.894511,00001.919658,00002.040870,00001.680553,00001.846343,-00000.399184,-00000.014436,-00000.554596,-00000.011926,00000.089509,-00000.028450
0000000001336,00001.427228,00000.576672,00001.344007,00001.285920,00002.155393,00001.895209,00001.919499,00002.041170,00001.680816,00001.846166,-00000.399264,-00000.014472,-00000.554349,-00000.011730,00000.089758,-00000.028518
0000000001337,00001.427445,00000.576973,00001.344228,00001.287243,00002.155485,00001.895050,00001.919723,00002.041050,00001.681345,00001.846063,-00000.399323,-00000.014103,-00000.554119,-00000.011604,00000.089985,-00000.028573
0000000001338,00001.427959,00000.576903,00001.344415,00001.288435,00002.155595,00001.895645,00001.919951,00002.041306,00001.681931,00001.846276,-00000.399029,-00000.014134,-00000.553909,-00000.011437,00000.089834,-00000.028631
0000000001339,00001.428506,00000.577159,00001.344965,00001.289925,00002.156036,00001.896235,00001.920141,00002.041567,00001.682382,00001.846551,-00000.398716,-00000.013820,-00000.553712,-00000.011329,00000.089665,-00000.028678
0000000001340,00001.428944,00000.577462,00001.345488,00001.291302,00002.156493,00001.896741,00001.920335,00002.042147,00001.682881,00001.846731,-00000.398466,-00000.013847,-00000.553897,-00000.011550,00000.089536,-00000.029090
0000000001341,00001.429410,00000.578043,00001.345956,00001.292570,00002.156868,00001.897243,00001.920497,00002.042732,00001.683264,00001.847328,-00000.398200,-00000.013942,-00000.553729,-00000.011821,00000.089392,-00000.029130
0000000001342,00001.429782,00000.578664,00001.346401,00001.294468,00002.157257,00001.897674,00001.921025,00002.042863,00001.683689,00001.847845,-00000.397986,-00000.013602,-00000.553886,-00000.012009,00000.089283,-00000.029117
0000000001343,00001.430541,00000.579158,00001.346800,00001.296273,00002.157577,00001.898102,00001.921163,00002.042998,00001.684016,00001.848353,-00000.397760,-00000.013683,-00000.554107,-00000.012240,00000.089160,-00000.029152
0000000001344,00001.431221,00000.579687,00001.347541,00001.299340,00002.158270,00001.898106,00001.921612,00002.043473,00001.684377,00001.849156,-00000.397215,-00000.013756,-00000.554240,-00000.012400,00000.088704,-00000.029141
0000000001345,00001.431868,00000.580471,00001.348244,00001.303053,00002.158542,00001.898107,00001.922092,00002.043950,00001.685018,00001.849951,-00000.396660,-00000.013462,-00000.554428,-00000.012597,00000.088237,-00000.029170
0000000001346,00001.432447,00000.581283,00001.349238,00001.306390,00002.159133,00001.898473,00001.922475,00002.044717,00001.685689,00001.850635,-00000.396196,-00000.013161,-00000.554541,-00000.012733,00000.087849,-00000.029161
0000000001347,00001.433360,00000.581950,00001.350561,00001.309551,00002.159727,00001.899200,00001.922884,00002.045849,00001.686234,00001.851312,-00000.395723,-00000.012911,-00000.554701,-00000.012901,00000.087451,-00000.029186
0000000001348,00001.433852,00000.582642,00001.351407,00001.312754,00002.160230,00001.899511,00001.923209,00002.046502,00001.686805,00001.851531,-00000.395329,-00000.012655,-00000.554798,-00000.013379,00000.087121,-00000.029179
0000000001349,00001.434267,00000.583210,00001.352534,00001.315445,00002.160373,00001.899767,00001.923557,00002.047103,00001.686907,00001.852107,-00000.394926,-00000.012805,-00000.554934,-00000.013885,00000.086782,-00000.029200
0000000001350,00001.434324,00000.583436,00001.353254,00001.315995,00002.160438,00001.900033,00001.923834,00002.046933,00001.687030,00001.852294,-00000.394590,-00000.012950,-00000.555016,-00000.014292,00000.086138,-00000.029193
0000000001351,00001.434314,00000.583557,00001.353851,00001.316472,00002.160560,00001.900250,00001.924131,00002.047082,00001.687479,00001.852059,-00000.394248,-00000.012715,-00000.555132,-00000.014722,00000.085487,-00000.028848
0000000001352,00001.434362,00000.583750,00001.354101,00001.316578,00002.160253,00001.900476,00001.924004,00002.047301,00001.687584,00001.851855,-00000.393962,-00000.012476,-00000.555202,-00000.015069,00000.084939,-00000.028480
0000000001353,00001.433991,00000.583853,00001.354246,00001.315895,00002.160357,00001.900299,00001.923893,00002.047065,00001.687241,00001.852018,-00000.393670,-00000.012276,-00000.555301,-00000.015435,00000.084384,-00000.028187
0000000001354,00001.433306,00000.584016,00001.354459,00001.315260,00002.160458,00001.900128,00001.923785,00002.046887,00001.687330,00001.851844,-00000.393426,-00000.012435,-00000.555723,-00000.015731,00000.083555,-00000.027873
0000000001355,00001.432627,00000.584104,00001.354220,00001.313953,00002.160183,00001.899977,00001.923691,00002.046687,00001.687401,00001.851257,-00000.393541,-00000.012264,-00000.555807,-00000.016043,00000.083083,-00000.027623
0000000001356,00001.432045,00000.584244,00001.354038,00001.312324,00002.159907,00001.899832,00001.923599,00002.046173,00001.687114,00001.850746,-00000.393334,-00000.012037,-00000.555804,-00000.016294,00000.082740,-00000.027356
0000000001357,00001.431830,00000.584318,00001.354197,00001.310849,00002.160036,00001.899704,00001.923519,00002.046002,00001.687174,00001.850609,-00000.393068,-00000.012255,-00000.556238,-00000.016559,00000.082338,-00000.027144
0000000001358,00001.431334,00000.584437,00001.354043,00001.309099,00002.159800,00001.899217,00001.923441,00002.045565,00001.686930,00001.850174,-00000.393255,-00000.012424,-00000.556598,-00000.016773,00000.082046,-00000.026916
0000000001359,00001.430788,00000.584500,00001.353453,00001.307480,00002.159548,00001.898745,00001.923373,00002.045056,00001.686619,00001.849695,-00000.393391,-00000.012609,-00000.556605,-00000.016999,00000.081704,-00000.026372
0000000001360,00001.430365,00000.584601,00001.353321,00001.305990,00002.159710,00001.898694,00001.923306,00002.044684,00001.686411,00001.849688,-00000.393550,-00000.012753,-00000.556549,-00000.017182,00000.081092,-00000.025816
0000000001361,00001.429901,00000.584293,00001.353544,00001.304613,00002.159495,00001.898655,00001.923248,00002.044251,00001.685783,00001.850005,-00000.393667,-00000.012911,-00000.556918,-00000.017374,00000.080801,-00000.025353
0000000001362,00001.429541,00000.584016,00001.353432,00001.303344,00002.159270,00001.898611,00001.922829,00002.043935,00001.685243,00001.849999,-00000.393802,-00000.013033,-00000.557232,-00000.017529,00000.080643,-00000.024880
0000000001363,00001.429145,00000.583753,00001.353260,00001.302171,00002.159450,00001.898215,00001.922779,00002.043566,00001.685071,00001.849907,-00000.393901,-00000.013168,-00000.557546,-00000.017693,00000.080395,-00000.024486
0000000001364,00001.428839,00000.583517,00001.352802,00001.301092,00002.159258,00001.898178,00001.922785,00002.043296,00001.684975,00001.849901,-00000.394379,-00000.013272,-00000.557814,-00000.017825,00000.079898,-00000.024082
0000000001365,00001.428503,00000.583294,00001.352654,00001.300093,00002.158686,00001.898203,00001.922743,00002.042983,00001.684828,00001.849823,-00000.394826,-00000.013386,-00000.558082,-00000.017964,00000.079324,-00000.023747
0000000001366,00001.428605,00000.582730,00001.352627,00001.299174,00002.158523,00001.898172,00001.922385,00002.043116,00001.684746,00001.849818,-00000.395233,-00000.013838,-00000.558310,-00000.018077,00000.079264,-00000.023404
0000000001367,00001.428318,00000.582540,00001.352502,00001.298324,00002.158398,00001.898193,00001.921986,00002.042849,00001.684622,00001.849388,-00000.395976,-00000.014298,-00000.558537,-00000.018195,00000.078775,-00000.023118
0000000001368,00001.428042,00000.582423,00001.352479,00001.297542,00002.157897,00001.898529,00001.921681,00002.042600,00001.684551,00001.849384,-00000.396685,-00000.014683,-00000.558369,-00000.018291,00000.078724,-00000.022826
0000000001369,00001.427798,00000.582261,00001.352372,00001.296818,00002.157790,00001.898910,00001.921705,00002.042372,00001.684445,00001.849381,-00000.397318,-00000.015074,-00000.558562,-00000.018392,00000.078308,-00000.022583
0000000001370,00001.427564,00000.582161,00001.352353,00001.296152,00002.157726,00001.898834,00001.921808,00002.042160,00001.684386,00001.849378,-00000.397922,-00000.015402,-00000.558782,-00000.018473,00000.077901,-00000.022334
0000000001371,00001.427356,00000.582023,00001.351899,00001.295536,00002.157636,00001.898433,00001.921828,00002.041966,00001.684296,00001.849013,-00000.398460,-00000.015735,-00000.558946,-00000.018559,00000.077547,-00000.022490
0000000001372,00001.427156,00000.581576,00001.351882,00001.294969,00002.157581,00001.898367,00001.921553,00002.042148,00001.684245,00001.849010,-00000.398612,-00000.016014,-00000.559133,-00000.018629,00000.077201,-00000.022278
0000000001373,00001.427342,00000.581096,00001.351859,00001.294444,00002.157142,00001.898389,00001.921208,00002.042347,00001.684168,00001.848699,-00000.398707,-00000.016298,-00000.559274,-00000.018702,00000.076900,-00000.022048
0000000001374,00001.427535,00000.580715,00001.351845,00001.293962,00002.157095,00001.897970,00001.921337,00002.042139,00001.684125,00001.848696,-00000.398836,-00000.016172,-00000.559070,-00000.018761,00000.076605,-00000.022231
0000000001375,00001.427693,00000.580306,00001.351462,00001.293878,00002.157084,00001.897988,00001.921042,00002.041945,00001.684059,00001.848794,-00000.398918,-00000.016051,-00000.558826,-00000.018823,00000.076349,-00000.022397
0000000001376,00001.428220,00000.579982,00001.351450,00001.293467,00002.157044,00001.897632,00001.921152,00002.042130,00001.684023,00001.849155,-00000.399027,-00000.015944,-00000.558653,-00000.018874,00000.076098,-00000.022190
0000000001377,00001.428717,00000.579634,00001.351487,00001.293396,00002.156672,00001.897648,00001.921264,00002.041965,00001.683967,00001.848876,-00000.399097,-00000.015841,-00000.558446,-00000.018927,00000.075879,-00000.022332
0000000001378,00001.429166,00000.579358,00001.351839,00001.293046,00002.156638,00001.897344,00001.921357,00002.041761,00001.683936,00001.849183,-00000.399190,-00000.015750,-00000.558298,-00000.018969,00000.075666,-00000.022518
0000000001379,00001.429589,00000.579061,00001.352234,00001.292985,00002.156683,00001.897358,00001.921453,00002.041620,00001.684251,00001.849308,-00000.399249,-00000.015662,-00000.558122,-00000.019015,00000.075480,-00000.022639
0000000001380,00001.430334,00000.578826,00001.352534,00001.293776,00002.157018,00001.897825,00001.921532,00002.041446,00001.684587,00001.849206,-00000.399328,-00000.015585,-00000.557996,-00000.019051,00000.075298,-00000.022798
0000000001381,00001.431057,00000.578574,00001.352869,00001.294450,00002.157056,00001.898199,00001.921614,00002.041326,00001.684856,00001.849313,-00000.399379,-00000.015873,-00000.557846,-00000.019089,00000.075140,-00000.022901
0000000001382,00001.432054,00000.578374,00001.353488,00001.295123,00002.157341,00001.898234,00001.921681,00002.041540,00001.685142,00001.849589,-00000.399446,-00000.016170,-00000.557739,-00000.019120,00000.074985,-00000.023036
0000000001383,00001.433032,00000.578159,00001.354499,00001.295697,00002.157737,00001.898190,00001.921751,00002.041801,00001.685370,00001.849680,-00000.399489,-00000.016052,-00000.557974,-00000.019153,00000.074850,-00000.023123
0000000001384,00001.433518,00000.578352,00001.355025,00001.296632,00002.157979,00001.898220,00001.922171,00002.041984,00001.685977,00001.849915,-00000.399547,-00000.016305,-00000.557882,-00000.019180,00000.074719,-00000.023238
0000000001385,00001.433988,00000.578532,00001.355524,00001.297846,00002.158316,00001.898545,00001.922230,00002.042206,00001.686534,00001.849992,-00000.399583,-00000.016205,-00000.557720,-00000.019207,00000.074604,-00000.023313
0000000001386,00001.435127,00000.578333,00001.356334,00001.298643,00002.158522,00001.898933,00001.922225,00002.042361,00001.686687,00001.850193,-00000.399632,-00000.016057,-00000.557642,-00000.019230,00000.074492,-00000.023411
0000000001387,00001.436253,00000.578486,00001.357121,00001.299676,00002.159172,00001.898847,00001.922638,00002.042550,00001.687162,00001.850621,-00000.399663,-00000.015972,-00000.557141,-00000.019254,00000.074394,-00000.023474
0000000001388,00001.437223,00000.578317,00001.357811,00001.301080,00002.159710,00001.899177,00001.922997,00002.043046,00001.687293,00001.850792,-00000.399705,-00000.015846,-00000.557075,-00000.019273,00000.074299,-00000.023557
0000000001389,00001.438181,00000.578084,00001.358119,00001.302323,00002.159900,00001.899467,00001.923348,00002.043569,00001.687696,00001.851156,-00000.400094,-00000.015774,-00000.557011,-00000.018930,00000.074215,-00000.023611
0000000001390,00001.439007,00000.577940,00001.358706,00001.303880,00002.159996,00001.899748,00001.923291,00002.043991,00001.687808,00001.851302,-00000.400130,-00000.015667,-00000.556955,-00000.018584,00000.074134,-00000.023682
0000000001391,00001.439823,00000.577742,00001.359330,00001.306389,00002.160158,00001.899632,00001.923590,00002.044799,00001.687789,00001.851612,-00000.400461,-00000.015605,-00000.556900,-00000.018292,00000.074063,-00000.023728
0000000001392,00001.440888,00000.577619,00001.359831,00001.309167,00002.160239,00001.899871,00001.923904,00002.045521,00001.688609,00001.851736,-00000.400491,-00000.015514,-00000.556489,-00000.018360,00000.073994,-00000.023789
0000000001393,00001.441583,00000.577814,00001.360362,00001.312028,00002.160740,00001.900135,00001.924159,00002.046209,00001.689318,00001.852726,-00000.400773,-00000.015461,-00000.556080,-00000.018112,00000.073934,-00000.023828
0000000001394,00001.442490,00000.577709,00001.361151,00001.314755,00002.161171,00001.900339,00001.924426,00002.046824,00001.690017,00001.853194,-00000.401525,-00000.015384,-00000.555731,-00000.017806,00000.074238,-00000.023879
0000000001395,00001.443444,00000.577875,00001.361603,00001.317191,00002.161598,00001.900563,00001.925005,00002.047047,00001.690621,00001.854036,-00000.402128,-00000.015339,-00000.555382,-00000.017595,00000.074187,-00000.023913
0000000001396,00001.444216,00000.578149,00001.362274,00001.319513,00002.162328,00001.900737,00001.925596,00002.047570,00001.691215,00001.854435,-00000.403130,-00000.015273,-00000.555085,-00000.017335,00000.074082,-00000.023956
0000000001397,00001.445029,00000.578290,00001.363022,00001.321587,00002.163054,00001.900928,00001.926089,00002.047760,00001.691729,00001.855152,-00000.404369,-00000.015235,-00000.554788,-00000.017155,00000.074039,-00000.023985
0000000001398,00001.445686,00000.578160,00001.363231,00001.322112,00002.162950,00001.901076,00001.926229,00002.048205,00001.691873,00001.855491,-00000.405585,-00000.015178,-00000.554535,-00000.016934,00000.074313,-00000.024022
0000000001399,00001.446015,00000.577917,00001.363505,00001.321701,00002.163205,00001.900876,00001.926649,00002.048004,00001.691585,00001.855376,-00000.406640,-00000.015146,-00000.554282,-00000.016781,00000.074276,-00000.024046
0000000001400,00001.446212,00000.577807,00001.363320,00001.321422,00002.163117,00001.901002,00001.926768,00002.047658,00001.691707,00001.855302,-00000.407675,-00000.015461,-00000.554067,-00000.016593,00000.074509,-00000.023715
0000000001401,00001.446491,00000.576874,00001.363553,00001.320346,00002.162608,00001.901194,00001.926400,00002.047849,00001.691462,00001.855205,-00000.408935,-00000.015433,-00000.553489,-00000.016463,00000.074840,-00000.023736
0000000001402,00001.446296,00000.576418,00001.363395,00001.319021,00002.162170,00001.900938,00001.926138,00002.047554,00001.691565,00001.854779,-00000.410542,-00000.015339,-00000.552943,-00000.016302,00000.075039,-00000.023454
0000000001403,00001.446172,00000.575624,00001.363594,00001.317017,00002.161737,00001.900740,00001.925825,00002.046992,00001.691357,00001.854333,-00000.411978,-00000.015315,-00000.552451,-00000.016191,00000.075321,-00000.023108
0000000001404,00001.446005,00000.574872,00001.363823,00001.314800,00002.161727,00001.900522,00001.925602,00002.046378,00001.691082,00001.853970,-00000.414072,-00000.015235,-00000.551986,-00000.016055,00000.075490,-00000.022869
0000000001405,00001.445899,00000.574197,00001.363992,00001.313094,00002.161359,00001.900352,00001.925336,00002.045899,00001.690905,00001.853591,-00000.416020,-00000.015215,-00000.551204,-00000.015960,00000.075730,-00000.022575
0000000001406,00001.445395,00000.573557,00001.364186,00001.310844,00002.161350,00001.900167,00001.925509,00002.045376,00001.690308,00001.853645,-00000.417802,-00000.014783,-00000.550445,-00000.015844,00000.075511,-00000.022370
0000000001407,00001.444579,00000.572982,00001.364330,00001.308666,00002.161037,00001.900023,00001.925282,00002.044969,00001.689794,00001.853322,-00000.419460,-00000.014403,-00000.549780,-00000.015401,00000.075353,-00000.022120
0000000001408,00001.443787,00000.572437,00001.364496,00001.306388,00002.161029,00001.899865,00001.925067,00002.044524,00001.689287,00001.853005,-00000.420978,-00000.014036,-00000.549134,-00000.014939,00000.075529,-00000.021583
0000000001409,00001.442730,00000.571947,00001.364256,00001.304171,00002.160762,00001.899743,00001.924511,00002.044177,00001.688849,00001.852730,-00000.422027,-00000.013713,-00000.548205,-00000.014562,00000.075757,-00000.021370
0000000001410,00001.442055,00000.571121,00001.364034,00001.302231,00002.160393,00001.899608,00001.923965,00002.043798,00001.688417,00001.852097,-00000.422955,-00000.013400,-00000.547292,-00000.014169,00000.075908,-00000.021276
0000000001411,00001.441518,00000.570704,00001.363829,00001.300344,00002.160166,00001.899504,00001.923854,00002.043503,00001.688044,00001.851863,-00000.423848,-00000.012762,-00000.546139,-00000.013848,00000.076102,-00000.021095
0000000001412,00001.440581,00000.570363,00001.364003,00001.298693,00002.160215,00001.899389,00001.923752,00002.043180,00001.687314,00001.851688,-00000.424276,-00000.012496,-00000.544999,-00000.013513,00000.076592,-00000.021015
0000000001413,00001.440124,00000.569645,00001.364192,00001.297086,00002.160021,00001.899663,00001.923295,00002.043292,00001.686997,00001.851488,-00000.424674,-00000.011953,-00000.544017,-00000.013240,00000.076757,-00000.020498
0000000001414,00001.439689,00000.568992,00001.364340,00001.296044,00002.159700,00001.899566,00001.923208,00002.043380,00001.686737,00001.851339,-00000.425038,-00000.011363,-00000.542684,-00000.012955,00000.076812,-00000.020067
0000000001415,00001.438574,00000.568744,00001.364138,00001.294676,00002.159535,00001.899436,00001.923182,00002.042749,00001.686467,00001.850806,-00000.425013,-00000.010901,-00000.541485,-00000.012722,00000.076953,-00000.019626
0000000001416,00001.437841,00000.568551,00001.364264,00001.293426,00002.159624,00001.899353,00001.923108,00002.042461,00001.685884,00001.850679,-00000.424961,-00000.010399,-00000.540350,-00000.012117,00000.077000,-00000.019260
0000000001417,00001.437255,00000.567977,00001.364092,00001.292624,00002.159121,00001.899243,00001.923086,00002.041924,00001.685654,00001.850226,-00000.424940,-00000.010006,-00000.539329,-00000.011556,00000.077119,-00000.018885
0000000001418,00001.436631,00000.567450,00001.364199,00001.291559,00002.158834,00001.899172,00001.922660,00002.041317,00001.685157,00001.850117,-00000.424895,-00000.009578,-00000.538000,-00000.011404,00000.077159,-00000.018572
0000000001419,00001.436132,00000.566961,00001.364415,00001.290514,00002.158769,00001.899079,00001.922278,00002.041222,00001.684962,00001.850094,-00000.424877,-00000.009243,-00000.536769,-00000.010926,00000.077261,-00000.018253
0000000001420,00001.435238,00000.566875,00001.364870,00001.289608,00002.158525,00001.899018,00001.922278,00002.041068,00001.684539,00001.850002,-00000.424839,-00000.008517,-00000.535275,-00000.010433,00000.077295,-00000.017987
0000000001421,00001.434813,00000.566459,00001.365054,00001.288718,00002.158106,00001.898938,00001.921953,00002.040987,00001.684009,00001.849982,-00000.424824,-00000.007869,-00000.533863,-00000.010027,00000.077019,-00000.017716
0000000001422,00001.434052,00000.566023,00001.365078,00001.287947,00002.157898,00001.898525,00001.921591,00002.040856,00001.683649,00001.849541,-00000.424792,-00000.007250,-00000.532591,-00000.009608,00000.077048,-00000.017489
0000000001423,00001.433327,00000.565669,00001.364871,00001.287189,00002.157905,00001.898456,00001.921314,00002.040788,00001.683199,00001.849161,-00000.424416,-00000.006699,-00000.531027,-00000.009262,00000.077176,-00000.017621
0000000001424,00001.432679,00000.565298,00001.364892,00001.286533,00002.157365,00001.898467,00001.921006,00002.040676,00001.682892,00001.849148,-00000.423663,-00000.005809,-00000.529582,-00000.008905,00000.077200,-00000.017428
0000000001425,00001.432063,00000.564997,00001.365442,00001.285888,00002.157370,00001.898046,00001.921133,00002.040617,00001.682871,00001.849188,-00000.422617,-00000.004614,-00000.528250,-00000.008610,00000.076946,-00000.017178
0000000001426,00001.431874,00000.564681,00001.365459,00001.285329,00002.156911,00001.898055,00001.920870,00002.040522,00001.682973,00001.848814,-00000.421250,-00000.003494,-00000.527019,-00000.008306,00000.076604,-00000.017013
0000000001427,00001.431349,00000.564061,00001.365928,00001.285143,00002.156553,00001.897697,00001.920616,00002.040472,00001.682956,00001.848485,-00000.419272,-00000.002477,-00000.525886,-00000.008055,00000.076388,-00000.016800
0000000001428,00001.430825,00000.563792,00001.367031,00001.285392,00002.156524,00001.897704,00001.920392,00002.040754,00001.682680,00001.848167,-00000.417383,-00000.001524,-00000.524475,-00000.007797,00000.076097,-00000.016660
0000000001429,00001.430741,00000.563628,00001.368155,00001.285597,00002.156220,00001.897762,00001.920538,00002.041075,00001.682664,00001.847887,-00000.414973,-00000.000295,-00000.523147,-00000.007220,00000.075913,-00000.016116
0000000001430,00001.430295,00000.563399,00001.369094,00001.285809,00002.155833,00001.897769,00001.920711,00002.041315,00001.682792,00001.847616,-00000.412639,00000.000517,-00000.522310,-00000.006637,00000.075665,-00000.015634
0000000001431,00001.429861,00000.563259,00001.370051,00001.286346,00002.155573,00001.897818,00001.920835,00002.041225,00001.683142,00001.847015,-00000.409862,00000.001563,-00000.521179,-00000.006147,00000.075509,-00000.015171
0000000001432,00001.429482,00000.563064,00001.371213,00001.286527,00002.155607,00001.897823,00001.920982,00002.041792,00001.683251,00001.846784,-00000.406787,00000.002617,-00000.520103,-00000.005650,00000.075298,-00000.014398
0000000001433,00001.429112,00000.562944,00001.372754,00001.286984,00002.155748,00001.897503,00001.921088,00002.042078,00001.683186,00001.846635,-00000.403698,00000.003507,-00000.519141,-00000.004870,00000.075527,-00000.013640
0000000001434,00001.429152,00000.562779,00001.374469,00001.287501,00002.155777,00001.897144,00001.921213,00002.042198,00001.683279,00001.846076,-00000.400354,00000.004767,-00000.517862,-00000.003722,00000.075347,-00000.013345
0000000001435,00001.428837,00000.561951,00001.376506,00001.287890,00002.155898,00001.896871,00001.921303,00002.042441,00001.683586,00001.845586,-00000.396998,00000.006251,-00000.516680,-00000.002332,00000.075543,-00000.013063
0000000001436,00001.428145,00000.559996,00001.379054,00001.287604,00002.155559,00001.896566,00001.921046,00002.042543,00001.683302,00001.845473,-00000.393426,00000.008049,-00000.515228,-00000.000991,00000.075753,-00000.013175
0000000001437,00001.427151,00000.558204,00001.381876,00001.287572,00002.154936,00001.896334,00001.920760,00002.042751,00001.683201,00001.845056,-00000.389844,00000.010038,-00000.513497,00000.000192,00000.076282,-00000.013660
0000000001438,00001.425474,00000.556539,00001.384771,00001.287692,00002.154648,00001.895711,00001.920905,00002.042475,00001.683322,00001.844597,-00000.385715,00000.012294,-00000.511898,00000.001333,00000.077186,-00000.014118
0000000001439,00001.421726,00000.555739,00001.387537,00001.287302,00002.154481,00001.894788,00001.920661,00002.041926,00001.682874,00001.844242,-00000.381940,00000.014713,-00000.510424,00000.002703,00000.077636,-00000.014894
0000000001440,00001.416670,00000.553596,00001.390364,00001.286316,00002.154235,00001.894258,00001.920422,00002.041691,00001.682614,00001.843852,-00000.378425,00000.017359,-00000.509063,00000.004037,00000.078043,-00000.015284
0000000001441,00001.410577,00000.550375,00001.393081,00001.284895,00002.153730,00001.893835,00001.920214,00002.041224,00001.682232,00001.843550,-00000.375211,00000.020144,-00000.507808,00000.005203,00000.079152,-00000.015944
0000000001442,00001.401194,00000.546375,00001.395488,00001.282967,00002.152795,00001.891933,00001.920010,00002.040661,00001.682011,00001.842854,-00000.372218,00000.023122,-00000.505924,00000.006339,00000.080587,-00000.017365
0000000001443,00001.389114,00000.542544,00001.398164,00001.280307,00002.152003,00001.889758,00001.919471,00002.040626,00001.680960,00001.842597,-00000.368757,00000.026581,-00000.503767,00000.007695,00000.081531,-00000.019015
0000000001444,00001.373145,00000.539139,00001.400576,00001.276852,00002.151207,00001.886688,00001.918934,00002.039784,00001.679683,00001.842005,-00000.364395,00000.030930,-00000.501438,00000.008661,00000.082027,-00000.020224
0000000001445,00001.355605,00000.535515,00001.402491,00001.272047,00002.150169,00001.883748,00001.918475,00002.037940,00001.677700,00001.841060,-00000.359997,00000.035326,-00000.498876,00000.009816,00000.082468,-00000.020904
0000000001446,00001.336568,00000.532253,00001.404544,00001.267655,00002.149129,00001.880771,00001.918018,00002.036861,00001.675525,00001.840193,-00000.355559,00000.039754,-00000.495805,00000.011364,00000.082528,-00000.021933
0000000001447,00001.318372,00000.528442,00001.406537,00001.262114,00002.148246,00001.877906,00001.917265,00002.036017,00001.673112,00001.839752,-00000.351089,00000.044585,-00000.491810,00000.013072,00000.082540,-00000.023238
0000000001448,00001.299989,00000.524214,00001.407922,00001.255835,00002.146635,00001.874284,00001.916150,00002.034372,00001.670172,00001.838651,-00000.346585,00000.050169,-00000.486656,00000.015479,00000.082591,-00000.024114
0000000001449,00001.281233,00000.519519,00001.409619,00001.248941,00002.145520,00001.870756,00001.915146,00002.032565,00001.667028,00001.837913,-00000.342055,00000.056095,-00000.480353,00000.018022,00000.082239,-00000.024861
0000000001450,00001.263044,00000.514831,00001.411161,00001.241781,00002.144148,00001.866947,00001.914197,00002.029714,00001.664163,00001.836976,-00000.337132,00000.063025,-00000.473425,00000.021522,00000.081193,-00000.025244
0000000001451,00001.244538,00000.510472,00001.412605,00001.234824,00002.142836,00001.863218,00001.913342,00002.027087,00001.661124,00001.835984,-00000.332187,00000.070609,-00000.465157,00000.025500,00000.080531,-00000.025155
0000000001452,00001.226877,00000.506118,00001.413918,00001.227641,00002.139855,00001.859976,00001.912535,00002.024660,00001.657959,00001.834461,-00000.327270,00000.078686,-00000.456720,00000.029568,00000.080004,-00000.025118
0000000001453,00001.209309,00000.501681,00001.415148,00001.216640,00002.136924,00001.856439,00001.911807,00002.022061,00001.654647,00001.832529,-00000.322698,00000.087319,-00000.447868,00000.034406,00000.079802,-00000.025405
0000000001454,00001.191372,00000.497250,00001.415902,00001.205083,00002.133661,00001.853315,00001.910757,00002.019632,00001.651227,00001.830506,-00000.318875,00000.096371,-00000.438509,00000.039683,00000.080442,-00000.026100
0000000001455,00001.173876,00000.493110,00001.416223,00001.193903,00002.130803,00001.849941,00001.909774,00002.017057,00001.647681,00001.828136,-00000.315345,00000.105172,-00000.429158,00000.044527,00000.081359,-00000.026707
0000000001456,00001.157518,00000.488611,00001.416140,00001.182976,00002.128024,00001.846920,00001.908880,00002.014264,00001.643681,00001.826051,-00000.312454,00000.113241,-00000.419014,00000.049745,00000.081541,-00000.027660
0000000001457,00001.141898,00000.483999,00001.416051,00001.172733,00002.124866,00001.844047,00001.907681,00002.011346,00001.639212,00001.823670,-00000.309812,00000.120733,-00000.408878,00000.054957,00000.081233,-00000.028540
0000000001458,00001.126884,00000.479806,00001.415617,00001.162706,00002.122138,00001.841112,00001.906920,00002.008242,00001.635081,00001.821533,-00000.307713,00000.127602,-00000.399154,00000.059762,00000.081025,-00000.029715
0000000001459,00001.112499,00000.475154,00001.414816,00001.152535,00002.119449,00001.838304,00001.905899,00002.005033,00001.630551,00001.819143,-00000.306915,00000.134343,-00000.388348,00000.064562,00000.080400,-00000.030464
0000000001460,00001.098992,00000.470134,00001.413721,00001.141822,00002.116764,00001.835443,00001.904525,00002.002028,00001.627035,00001.816961,-00000.306943,00000.140554,-00000.377530,00000.069741,00000.079498,-00000.031101
0000000001461,00001.085657,00000.465448,00001.411950,00001.130987,00002.114112,00001.832690,00001.903293,00001.998933,00001.623178,00001.814564,-00000.307352,00000.147018,-00000.366880,00000.075278,00000.078603,-00000.031013
0000000001462,00001.073070,00000.460811,00001.409930,00001.118964,00002.111826,00001.829891,00001.902124,00001.994561,00001.619459,00001.812343,-00000.308463,00000.152668,-00000.356945,00000.080775,00000.077835,-00000.030104
0000000001463,00001.060993,00000.456459,00001.407697,00001.107200,00002.109206,00001.827184,00001.900713,00001.986847,00001.615087,00001.809577,-00000.309900,00000.157808,-00000.348241,00000.085852,00000.076710,-00000.028578
0000000001464,00001.049915,00000.452150,00001.405614,00001.095515,00002.107260,00001.824802,00001.899354,00001.979134,00001.610107,00001.806961,-00000.311935,00000.162254,-00000.340509,00000.090894,00000.075330,-00000.025990
0000000001465,00001.039633,00000.447356,00001.403350,00001.084775,00002.105392,00001.822861,00001.898153,00001.972204,00001.605660,00001.804606,-00000.314609,00000.165542,-00000.333825,00000.095216,00000.074010,-00000.022514
0000000001466,00001.029840,00000.442962,00001.400852,00001.074464,00002.103010,00001.821195,00001.896634,00001.965276,00001.601421,00001.802379,-00000.317792,00000.167876,-00000.328332,00000.099146,00000.071747,-00000.018498
0000000001467,00001.020725,00000.439244,00001.398562,00001.065321,00002.101057,00001.818817,00001.895611,00001.959014,00001.597635,00001.800375,-00000.320069,00000.170675,-00000.322642,00000.103550,00000.070261,-00000.014450
0000000001468,00001.012387,00000.435866,00001.396798,00001.056906,00002.099392,00001.817036,00001.894318,00001.953115,00001.593663,00001.798842,-00000.321690,00000.173388,-00000.317239,00000.107621,00000.068697,-00000.010668
0000000001469,00001.004627,00000.432701,00001.395211,00001.049485,00002.097730,00001.815374,00001.893447,00001.947422,00001.590440,00001.797135,-00000.322903,00000.176133,-00000.312395,00000.111734,00000.067069,-00000.006860
0000000001470,00000.997530,00000.429825,00001.393709,00001.042684,00002.096312,00001.814221,00001.892709,00001.942763,00001.587059,00001.795104,-00000.323195,00000.179168,-00000.307433,00000.116288,00000.066101,-00000.003277
0000000001471,00000.990924,00000.427131,00001.392358,00001.036367,00002.094897,00001.812807,00001.891605,00001.938642,00001.583952,00001.793652,-00000.323501,00000.182230,-00000.303310,00000.120877,00000.065803,-00000.000398
0000000001472,00000.984519,00000.424320,00001.390717,00001.030578,00002.093690,00001.811462,00001.890614,00001.934313,00001.581074,00001.791923,-00000.323750,00000.185177,-00000.299449,00000.125480,00000.066067,00000.002652
0000000001473,00000.978532,00000.421663,00001.389567,00001.024837,00002.092485,00001.810258,00001.890037,00001.930442,00001.578429,00001.790323,-00000.323285,00000.187421,-00000.296664,00000.129024,00000.065088,00000.005829
0000000001474,00000.973080,00000.418908,00001.388533,00001.019908,00002.091458,00001.809113,00001.889556,00001.926757,00001.576342,00001.789214,-00000.322046,00000.189567,-00000.294102,00000.132217,00000.064224,00000.008788
0000000001475,00000.967984,00000.416646,00001.387554,00001.016473,00002.090432,00001.808088,00001.888701,00001.923824,00001.574453,00001.788215,-00000.320562,00000.190752,-00000.292457,00000.135234,00000.063753,00000.011130
0000000001476,00000.963342,00000.414663,00001.386673,00001.013365,00002.089921,00001.807114,00001.888292,00001.921050,00001.573039,00001.787634,-00000.319144,00000.191490,-00000.291728,00000.137589,00000.063018,00000.012923
0000000001477,00000.959003,00000.412738,00001.385840,00001.010803,00002.089410,00001.806241,00001.887928,00001.918553,00001.572520,00001.786784,-00000.317881,00000.191773,-00000.291778,00000.139432,00000.061892,00000.014191
0000000001478,00000.955415,00000.411049,00001.385090,00001.009246,00002.088975,00001.805412,00001.887579,00001.917280,00001.572041,00001.786289,-00000.316311,00000.192039,-00000.292246,00000.140711,00000.060541,00000.015718
0000000001479,00000.952447,00000.409773,00001.384381,00001.008153,00002.088903,00001.804669,00001.887269,00001.916969,00001.571599,00001.785928,-00000.314510,00000.192280,-00000.292652,00000.141917,00000.059219,00000.017160
0000000001480,00000.949755,00000.408699,00001.383742,00001.007553,00002.088532,00001.803963,00001.886972,00001.919875,00001.571554,00001.785507,-00000.313173,00000.192143,-00000.293412,00000.142643,00000.057706,00000.018822
0000000001481,00000.947591,00000.407612,00001.383138,00001.007349,00002.088108,00001.803330,00001.886708,00001.922875,00001.571541,00001.785199,-00000.312729,00000.191623,-00000.294483,00000.143670,00000.055855,00000.020050
0000000001482,00000.946025,00000.407061,00001.382595,00001.007927,00002.088155,00001.803092,00001.886819,00001.924987,00001.571866,00001.784841,-00000.312679,00000.190781,-00000.296219,00000.144651,00000.054204,00000.020740
0000000001483,00000.944546,00000.406861,00001.382081,00001.009204,00002.088157,00001.802916,00001.887319,00001.927178,00001.571491,00001.784942,-00000.312663,00000.189613,-00000.297857,00000.145525,00000.052266,00000.021059
0000000001484,00000.943575,00000.407117,00001.381618,00001.010421,00002.087835,00001.803076,00001.887413,00001.929339,00001.571405,00001.784999,-00000.312984,00000.188170,-00000.300060,00000.146360,00000.050134,00000.020921
0000000001485,00000.942679,00000.407310,00001.381181,00001.011508,00002.087474,00001.803289,00001.887477,00001.931567,00001.571449,00001.784723,-00000.312971,00000.186813,-00000.301817,00000.147467,00000.048122,00000.020830
0000000001486,00000.941852,00000.407528,00001.380787,00001.012182,00002.087199,00001.803063,00001.887194,00001.933406,00001.571013,00001.784772,-00000.312881,00000.185222,-00000.303693,00000.148541,00000.046670,00000.020350
0000000001487,00000.940726,00000.408055,00001.380052,00001.012744,00002.087254,00001.802881,00001.887248,00001.934940,00001.571413,00001.784536,-00000.313232,00000.183704,-00000.305551,00000.149120,00000.045319,00000.019910
0000000001488,00000.939660,00000.408603,00001.378991,00001.012592,00002.087020,00001.802688,00001.887007,00001.931427,00001.571405,00001.784215,-00000.313519,00000.182350,-00000.307511,00000.150034,00000.044084,00000.019138
0000000001489,00000.938339,00000.408327,00001.377276,00001.011620,00002.086342,00001.802171,00001.886690,00001.927653,00001.570295,00001.783652,-00000.313818,00000.181057,-00000.309455,00000.150890,00000.042934,00000.018400
0000000001490,00000.936706,00000.408068,00001.375285,00001.010039,00002.085780,00001.801281,00001.886122,00001.923937,00001.568473,00001.782653,-00000.314424,00000.179541,-00000.311124,00000.151668,00000.041882,00000.017743
0000000001491,00000.935218,00000.407832,00001.373463,00001.008486,00002.084840,00001.800841,00001.885490,00001.920362,00001.566803,00001.782173,-00000.315404,00000.177715,-00000.313142,00000.152034,00000.040903,00000.017115
0000000001492,00000.933828,00000.407612,00001.372130,00001.006415,00002.084724,00001.800084,00001.885007,00001.917198,00001.564889,00001.782048,-00000.317009,00000.175699,-00000.314925,00000.152697,00000.040008,00000.016556
0000000001493,00000.932561,00000.407411,00001.370216,00001.004730,00002.084286,00001.799346,00001.884468,00001.913792,00001.563467,00001.781640,-00000.318932,00000.173782,-00000.316643,00000.153371,00000.039174,00000.016021
0000000001494,00000.931378,00000.407586,00001.368719,00001.002966,00002.083825,00001.798701,00001.884057,00001.911098,00001.562201,00001.781171,-00000.321024,00000.171703,-00000.318524,00000.153572,00000.038412,00000.015545
0000000001495,00000.930300,00000.407415,00001.367452,00001.001169,00002.083453,00001.798073,00001.883236,00001.908562,00001.560627,00001.780823,-00000.323386,00000.169708,-00000.320349,00000.153784,00000.037703,00000.015090
0000000001496,00000.929292,00000.407202,00001.365815,00001.000031,00002.082697,00001.797524,00001.882522,00001.905906,00001.559550,00001.780424,-00000.325530,00000.167939,-00000.321950,00000.153592,00000.037054,00000.014685
0000000001497,00000.928374,00000.407056,00001.364737,00000.998864,00002.082380,00001.796990,00001.882186,00001.903746,00001.558573,00001.780491,-00000.327541,00000.166240,-00000.323504,00000.153409,00000.036813,00000.014297
0000000001498,00000.927516,00000.406875,00001.363706,00000.997895,00002.082100,00001.796885,00001.881942,00001.901848,00001.557293,00001.780514,-00000.329728,00000.164734,-00000.324867,00000.153246,00000.036623,00000.013589
0000000001499,00000.926735,00000.406751,00001.362788,00000.996901,00002.081830,00001.796793,00001.881293,00001.900010,00001.556461,00001.780208,-00000.331803,00000.162925,-00000.326553,00000.152728,00000.036418,00000.012897
0000000001500,00000.926005,00000.406596,00001.361547,00000.996439,00002.081591,00001.796341,00001.881085,00001.898031,00001.555734,00001.779865,-00000.333666,00000.160917,-00000.328439,00000.152226,00000.036256,00000.012294
0000000001501,00000.925340,00000.406491,00001.360766,00000.995593,00002.081361,00001.796263,00001.880895,00001.896466,00001.555026,00001.779967,-00000.335795,00000.159015,-00000.329874,00000.151785,00000.036081,00000.011705
0000000001502,00000.924718,00000.406722,00001.359710,00000.994837,00002.081521,00001.796241,00001.880718,00001.894782,00001.554407,00001.779675,-00000.338106,00000.157305,-00000.331480,00000.151358,00000.035944,00000.011192
0000000001503,00000.924152,00000.406995,00001.358681,00000.994117,00002.081325,00001.795811,00001.880920,00001.893087,00001.553804,00001.779762,-00000.340281,00000.155323,-00000.333064,00000.150982,00000.035795,00000.010690
0000000001504,00000.923985,00000.406828,00001.358145,00000.993473,00002.081098,00001.795793,00001.880769,00001.892016,00001.553277,00001.779876,-00000.342248,00000.153505,-00000.334431,00000.150618,00000.035678,00000.010253
0000000001505,00000.923866,00000.406698,00001.357633,00000.992860,00002.080932,00001.795427,00001.880577,00001.890935,00001.552402,00001.779950,-00000.344100,00000.151454,-00000.336142,00000.150298,00000.035552,00000.009826
0000000001506,00000.923725,00000.406919,00001.357176,00000.992312,00002.081101,00001.795048,00001.880449,00001.889661,00001.551953,00001.780047,-00000.345775,00000.149907,-00000.337306,00000.149989,00000.035452,00000.008728
0000000001507,00000.923623,00000.407171,00001.356377,00000.992153,00002.080960,00001.794737,00001.880286,00001.888378,00001.551570,00001.779748,-00000.347351,00000.148524,-00000.338037,00000.150079,00000.035707,00000.006914
0000000001508,00000.923502,00000.406997,00001.355626,00000.991686,00002.080379,00001.794415,00001.879814,00001.887293,00001.550826,00001.779468,-00000.348414,00000.147569,-00000.338665,00000.150179,00000.035985,00000.004891
0000000001509,00000.923416,00000.406849,00001.354946,00000.991551,00002.080258,00001.794513,00001.879675,00001.886201,00001.550137,00001.779213,-00000.349031,00000.147118,-00000.338925,00000.150256,00000.036565,00000.002620
0000000001510,00000.922951,00000.407063,00001.354306,00000.991154,00002.080126,00001.793875,00001.879636,00001.885278,00001.549866,00001.779337,-00000.349210,00000.146667,-00000.339097,00000.150340,00000.037164,00000.000536
0000000001511,00000.923240,00000.407299,00001.354090,00000.990676,00002.080023,00001.793959,00001.879518,00001.884711,00001.549642,00001.779483,-00000.349372,00000.146283,-00000.339318,00000.150043,00000.037658,-00000.001397
0000000001512,00000.923206,00000.407482,00001.353908,00000.990700,00002.079911,00001.793779,00001.879485,00001.883925,00001.549774,00001.779588,-00000.349525,00000.145900,-00000.339827,00000.149752,00000.038168,-00000.002809
0000000001513,00000.923090,00000.407683,00001.353361,00000.990293,00002.079823,00001.793487,00001.879384,00001.883079,00001.549947,00001.779712,-00000.349663,00000.145573,-00000.340015,00000.149499,00000.038588,-00000.003729
0000000001514,00000.923061,00000.408201,00001.353206,00000.990314,00002.080090,00001.793334,00001.879719,00001.882410,00001.549696,00001.779802,-00000.350155,00000.145247,-00000.340448,00000.149252,00000.039023,-00000.004568
0000000001515,00000.923325,00000.408736,00001.353104,00000.990331,00002.080016,00001.793448,00001.879633,00001.882053,00001.549843,00001.779908,-00000.350636,00000.144968,-00000.340971,00000.149036,00000.039381,-00000.004988
0000000001516,00000.923663,00000.409177,00001.352972,00000.990348,00002.080243,00001.793681,00001.879918,00001.881846,00001.549993,00001.780710,-00000.351418,00000.144328,-00000.341340,00000.148826,00000.039750,-00000.005340
0000000001517,00000.923888,00000.409631,00001.352884,00000.990362,00002.080180,00001.793778,00001.879845,00001.881543,00001.550118,00001.781163,-00000.352189,00000.143728,-00000.341786,00000.148642,00000.039692,-00000.005335
0000000001518,00000.924176,00000.410370,00001.352772,00000.990378,00002.080374,00001.793613,00001.880088,00001.881366,00001.551334,00001.781483,-00000.353218,00000.142820,-00000.342462,00000.148463,00000.039644,-00000.005272
0000000001519,00000.924367,00000.411120,00001.352698,00000.990752,00002.080682,00001.793696,00001.880388,00001.881108,00001.552528,00001.781868,-00000.354238,00000.141946,-00000.342842,00000.147944,00000.039595,-00000.005267
0000000001520,00000.924612,00000.412111,00001.352965,00000.991128,00002.081210,00001.793556,00001.880595,00001.880958,00001.553563,00001.782141,-00000.355114,00000.141173,-00000.343418,00000.147428,00000.039191,-00000.005213
0000000001521,00000.924775,00000.413475,00001.353265,00000.991810,00002.081836,00001.793626,00001.880851,00001.881100,00001.554943,00001.782469,-00000.355982,00000.140067,-00000.344466,00000.146987,00000.038786,-00000.005210
0000000001522,00000.924984,00000.414682,00001.353492,00000.992855,00002.081922,00001.794233,00001.881027,00001.881335,00001.555099,00001.783064,-00000.356727,00000.139046,-00000.345319,00000.146185,00000.038080,-00000.005164
0000000001523,00000.925122,00000.415843,00001.353384,00000.994887,00002.082092,00001.794655,00001.881245,00001.881820,00001.555548,00001.783343,-00000.357103,00000.138467,-00000.346574,00000.145446,00000.037735,-00000.005161
0000000001524,00000.925300,00000.417233,00001.353215,00000.996865,00002.082165,00001.795171,00001.881394,00001.882745,00001.556769,00001.783850,-00000.357012,00000.137961,-00000.348026,00000.145126,00000.037134,-00000.004759
0000000001525,00000.925418,00000.418584,00001.353486,00000.998594,00002.082673,00001.795531,00001.881942,00001.887511,00001.557877,00001.784450,-00000.356970,00000.137468,-00000.349095,00000.144860,00000.036477,-00000.004393
0000000001526,00000.925569,00000.419767,00001.353705,00001.000279,00002.083098,00001.795971,00001.882070,00001.889750,00001.559279,00001.784881,-00000.356892,00000.137037,-00000.350331,00000.144588,00000.035965,-00000.004414
0000000001527,00000.926032,00000.420918,00001.354298,00001.001751,00002.083167,00001.796640,00001.882174,00001.894170,00001.559859,00001.785392,-00000.357219,00000.136617,-00000.351603,00000.144362,00000.035407,-00000.004465
0000000001528,00000.926524,00000.422288,00001.354848,00001.003185,00002.083530,00001.797014,00001.882282,00001.898979,00001.560327,00001.786122,-00000.357516,00000.135887,-00000.353019,00000.143767,00000.034971,-00000.004120
0000000001529,00000.926918,00000.423630,00001.355715,00001.004438,00002.083588,00001.797583,00001.882371,00001.902742,00001.560458,00001.786557,-00000.357431,00000.135167,-00000.354827,00000.143211,00000.034132,-00000.003801
0000000001530,00000.927337,00000.424796,00001.356183,00001.005296,00002.083897,00001.797902,00001.882463,00001.902844,00001.561219,00001.786816,-00000.357321,00000.134546,-00000.356395,00000.142705,00000.033399,-00000.003508
0000000001531,00000.927310,00000.425939,00001.356196,00001.006000,00002.083947,00001.798024,00001.882538,00001.900968,00001.562057,00001.787186,-00000.357249,00000.133933,-00000.357935,00000.142232,00000.032322,-00000.003236
0000000001532,00000.927303,00000.426932,00001.355869,00001.006005,00002.083846,00001.797932,00001.882617,00001.899605,00001.561254,00001.787406,-00000.357155,00000.133767,-00000.359632,00000.141801,00000.031335,-00000.002986
0000000001533,00000.926917,00000.427542,00001.355517,00001.005516,00002.083889,00001.797673,00001.882318,00001.897645,00001.560515,00001.787359,-00000.357094,00000.133608,-00000.361668,00000.141399,00000.030418,-00000.003118
0000000001534,00000.926549,00000.428024,00001.355238,00001.004794,00002.083441,00001.797595,00001.882022,00001.896484,00001.559469,00001.787183,-00000.357014,00000.133467,-00000.363476,00000.141032,00000.029577,-00000.003993
0000000001535,00000.926220,00000.428543,00001.354939,00001.003652,00002.083477,00001.797012,00001.881405,00001.894816,00001.558477,00001.787143,-00000.356962,00000.133331,-00000.365572,00000.140689,00000.028797,-00000.004831
0000000001536,00000.925907,00000.428954,00001.354339,00001.003038,00002.083096,00001.796946,00001.881153,00001.893465,00001.557949,00001.786994,-00000.356531,00000.132848,-00000.367837,00000.140377,00000.028082,-00000.005576
0000000001537,00000.925627,00000.429033,00001.354084,00001.002066,00002.082764,00001.796812,00001.880991,00001.891682,00001.557105,00001.786959,-00000.356124,00000.132370,-00000.369984,00000.139722,00000.027417,-00000.006289
0000000001538,00000.925360,00000.429020,00001.353936,00001.001180,00002.082439,00001.796756,00001.880414,00001.890894,00001.556293,00001.786832,-00000.355757,00000.131959,-00000.372275,00000.138731,00000.026808,-00000.006924
0000000001539,00000.925122,00000.429088,00001.353356,00001.000715,00002.081794,00001.796642,00001.879913,00001.889376,00001.555575,00001.786803,-00000.355410,00000.131189,-00000.374828,00000.137811,00000.026243,-00000.007531
0000000001540,00000.924532,00000.429077,00001.352867,00000.999961,00002.081517,00001.796231,00001.879784,00001.888343,00001.555246,00001.786695,-00000.355098,00000.130114,-00000.377141,00000.136967,00000.025724,-00000.008071
0000000001541,00000.924329,00000.429134,00001.352374,00000.999203,00002.081330,00001.796134,00001.879357,00001.887414,00001.554634,00001.786307,-00000.355166,00000.128733,-00000.379315,00000.135821,00000.025243,-00000.008588
0000000001542,00000.924190,00000.429487,00001.352321,00000.998561,00002.081095,00001.795784,00001.879248,00001.886534,00001.553991,00001.786215,-00000.355626,00000.127454,-00000.381647,00000.134740,00000.024801,-00000.008685
0000000001543,00000.924380,00000.429536,00001.352263,00000.997915,00002.080936,00001.795702,00001.878885,00001.885743,00001.553471,00001.786248,-00000.356046,00000.126279,-00000.383860,00000.133764,00000.024392,-00000.008399
0000000001544,00000.924624,00000.429837,00001.352218,00000.997732,00002.080736,00001.795767,00001.878429,00001.885357,00001.553286,00001.786169,-00000.356437,00000.124827,-00000.385845,00000.132843,00000.024016,-00000.008119
0000000001545,00000.924423,00000.430604,00001.352169,00000.997545,00002.080601,00001.795696,00001.878482,00001.884321,00001.553569,00001.786197,-00000.356795,00000.123464,-00000.388092,00000.131650,00000.023667,-00000.007876
0000000001546,00000.924268,00000.431223,00001.352130,00000.997389,00002.080793,00001.795752,00001.878457,00001.883993,00001.553775,00001.786493,-00000.357129,00000.122228,-00000.390145,00000.130504,00000.023347,-00000.007274
0000000001547,00000.924097,00000.432239,00001.352089,00000.997230,00002.080678,00001.795692,00001.878503,00001.883110,00001.554015,00001.786517,-00000.357433,00000.121068,-00000.392058,00000.129488,00000.022687,-00000.006705
0000000001548,00000.924328,00000.433128,00001.352056,00000.997096,00002.080479,00001.795739,00001.878118,00001.882831,00001.553827,00001.786406,-00000.358080,00000.120379,-00000.393805,00000.128875,00000.022415,-00000.006193
0000000001549,00000.924545,00000.433993,00001.352021,00000.996961,00002.080381,00001.796051,00001.878157,00001.882442,00001.553669,00001.786789,-00000.358702,00000.119391,-00000.395433,00000.128373,00000.021853,-00000.005708
0000000001550,00000.924379,00000.435113,00001.351992,00000.996848,00002.080574,00001.795728,00001.878193,00001.881842,00001.553510,00001.786695,-00000.358889,00000.118441,-00000.396921,00000.127488,00000.021258,-00000.005272
0000000001551,00000.924564,00000.436212,00001.351962,00000.997095,00002.080490,00001.795631,00001.878226,00001.881874,00001.553738,00001.787021,-00000.359419,00000.117600,-00000.398307,00000.126698,00000.020780,-00000.004859
0000000001552,00000.924785,00000.437166,00001.351938,00000.997724,00002.080292,00001.795719,00001.878256,00001.881725,00001.554327,00001.786940,-00000.359941,00000.116792,-00000.399574,00000.125944,00000.020274,-00000.004488
0000000001553,00000.924943,00000.438464,00001.351913,00000.998298,00002.080584,00001.795636,00001.878284,00001.881390,00001.554885,00001.787218,-00000.360392,00000.116076,-00000.400391,00000.125272,00000.019867,-00000.004136
0000000001554,00000.925131,00000.439639,00001.351893,00000.998833,00002.080415,00001.795711,00001.878310,00001.880900,00001.555386,00001.787512,-00000.360837,00000.115388,-00000.401106,00000.124993,00000.019436,-00000.003821
0000000001555,00000.925265,00000.440744,00001.351871,00001.000047,00002.080301,00001.795641,00001.878334,00001.880615,00001.556223,00001.787749,-00000.361221,00000.114778,-00000.401439,00000.125146,00000.019090,-00000.003521
0000000001556,00000.925788,00000.441744,00001.351853,00001.001229,00002.080520,00001.796067,00001.878719,00001.880561,00001.556651,00001.788362,-00000.361237,00000.114193,-00000.401685,00000.125272,00000.018723,-00000.003252
0000000001557,00000.926265,00000.442685,00001.352198,00001.002625,00002.081148,00001.796370,00001.879102,00001.880681,00001.557001,00001.788926,-00000.361201,00000.113674,-00000.401606,00000.125765,00000.018428,-00000.003361
0000000001558,00000.926710,00000.443899,00001.352546,00001.003994,00002.081334,00001.797096,00001.879067,00001.881361,00001.558090,00001.789448,-00000.361214,00000.113175,-00000.401453,00000.126235,00000.018115,-00000.003494
0000000001559,00000.927116,00000.445063,00001.352839,00001.005182,00002.081869,00001.797354,00001.879393,00001.881825,00001.558388,00001.790291,-00000.361184,00000.112733,-00000.401385,00000.126655,00000.017864,-00000.003586
0000000001560,00000.927495,00000.446459,00001.352772,00001.006710,00002.082028,00001.797609,00001.879725,00001.884581,00001.559315,00001.791099,-00000.361195,00000.112309,-00000.400892,00000.127055,00000.017598,-00000.003700
0000000001561,00000.927841,00000.447813,00001.353385,00001.007722,00002.082483,00001.797829,00001.880003,00001.888242,00001.560294,00001.792179,-00000.361169,00000.111933,-00000.400835,00000.127049,00000.017385,-00000.003779
0000000001562,00000.928164,00000.449001,00001.354053,00001.009385,00002.082618,00001.798409,00001.880286,00001.893127,00001.561446,00001.793229,-00000.361179,00000.111571,-00000.400415,00000.127027,00000.017521,-00000.003513
0000000001563,00000.928821,00000.450154,00001.354938,00001.010609,00002.083006,00001.798958,00001.880886,00001.897694,00001.562643,00001.794512,-00000.361519,00000.111251,-00000.400003,00000.127022,00000.017339,-00000.003580
0000000001564,00000.929458,00000.451528,00001.355507,00001.012388,00002.083484,00001.799452,00001.881127,00001.901853,00001.563986,00001.795405,-00000.362253,00000.110944,-00000.400008,00000.127003,00000.017092,-00000.003716
0000000001565,00000.930018,00000.452872,00001.356260,00001.013793,00002.084177,00001.799920,00001.881637,00001.905742,00001.565367,00001.796860,-00000.362906,00000.110308,-00000.399658,00000.126999,00000.016938,-00000.003410
0000000001566,00000.930560,00000.454042,00001.357107,00001.014945,00002.084946,00001.800340,00001.882205,00001.909282,00001.566511,00001.798347,-00000.363531,00000.110046,-00000.399662,00000.126983,00000.016728,-00000.003164
0000000001567,00000.931399,00000.455186,00001.357748,00001.016504,00002.085173,00001.801102,00001.882277,00001.912955,00001.567687,00001.799585,-00000.364086,00000.109868,-00000.399727,00000.126980,00000.016233,-00000.003266
0000000001568,00000.931861,00000.456182,00001.358469,00001.018210,00002.085465,00001.801822,00001.882760,00001.915969,00001.569024,00001.800850,-00000.364618,00000.109645,-00000.399368,00000.126966,00000.016054,-00000.003419
0000000001569,00000.932576,00000.457156,00001.359378,00001.019536,00002.085659,00001.802470,00001.882821,00001.919096,00001.570388,00001.801905,-00000.365091,00000.109494,-00000.399060,00000.126963,00000.015996,-00000.003506
0000000001570,00000.932969,00000.458367,00001.360355,00001.020989,00002.086270,00001.803084,00001.883233,00001.922024,00001.571888,00001.803345,-00000.365181,00000.109304,-00000.399117,00000.126951,00000.015844,-00000.003636
0000000001571,00000.933214,00000.459196,00001.361128,00001.022118,00002.086798,00001.803635,00001.883647,00001.924686,00001.573049,00001.804605,-00000.365584,00000.109175,-00000.399218,00000.126949,00000.015794,-00000.003710
0000000001572,00000.933186,00000.459864,00001.361597,00001.022992,00002.086955,00001.803795,00001.883998,00001.926816,00001.573964,00001.805105,-00000.366023,00000.109376,-00000.399266,00000.126576,00000.015302,-00000.003821
0000000001573,00000.933395,00000.460207,00001.361529,00001.023591,00002.086679,00001.804264,00001.883988,00001.924003,00001.573864,00001.805453,-00000.366003,00000.109266,-00000.399352,00000.126574,00000.015259,-00000.003884
0000000001574,00000.933371,00000.460413,00001.361566,00001.023609,00002.086813,00001.804400,00001.883923,00001.921101,00001.572466,00001.805879,-00000.366015,00000.109075,-00000.399031,00000.126619,00000.014840,-00000.003978
0000000001575,00000.933186,00000.460705,00001.361146,00001.023756,00002.086578,00001.804437,00001.883552,00001.918706,00001.572381,00001.805811,-00000.365998,00000.109344,-00000.398741,00000.126618,00000.014441,-00000.004032
0000000001576,00000.933166,00000.460880,00001.360814,00001.023408,00002.086329,00001.804553,00001.883135,00001.916235,00001.572279,00001.806174,-00000.366007,00000.109544,-00000.398467,00000.126656,00000.014447,-00000.004112
0000000001577,00000.933008,00000.461129,00001.360456,00001.023171,00002.086129,00001.804221,00001.883181,00001.913833,00001.571118,00001.806117,-00000.365993,00000.109773,-00000.398221,00000.126655,00000.014108,-00000.004158
0000000001578,00000.932991,00000.460915,00001.360174,00001.023238,00002.085917,00001.804320,00001.882826,00001.911367,00001.569943,00001.806063,-00000.366001,00000.109943,-00000.398350,00000.126325,00000.014113,-00000.004226
0000000001579,00000.933220,00000.460764,00001.359869,00001.023398,00002.085747,00001.804400,00001.882866,00001.909322,00001.569317,00001.805651,-00000.365988,00000.110138,-00000.398140,00000.125961,00000.014187,-00000.004265
0000000001580,00000.933205,00000.460945,00001.359266,00001.023093,00002.085567,00001.804121,00001.882926,00001.907223,00001.568680,00001.805242,-00000.365995,00000.110283,-00000.398251,00000.125680,00000.014191,-00000.004324
0000000001581,00000.933037,00000.460816,00001.358644,00001.022867,00002.085058,00001.803827,00001.882597,00001.905482,00001.567785,00001.804892,-00000.365985,00000.110086,-00000.398072,00000.125370,00000.014254,-00000.004357
0000000001582,00000.933387,00000.460608,00001.358493,00001.022606,00002.084905,00001.803952,00001.882285,00001.903695,00001.567605,00001.804544,-00000.365991,00000.109847,-00000.398166,00000.125131,00000.014258,-00000.004406
0000000001583,00000.933607,00000.460498,00001.358327,00001.022414,00002.084835,00001.803702,00001.882005,00001.902213,00001.567568,00001.804609,-00000.365982,00000.109679,-00000.398377,00000.124867,00000.014311,-00000.004434
0000000001584,00000.933542,00000.460320,00001.357835,00001.022192,00002.084705,00001.803809,00001.882103,00001.900692,00001.566689,00001.804675,-00000.365987,00000.109476,-00000.398820,00000.124301,00000.013952,-00000.004839
0000000001585,00000.933366,00000.460590,00001.357331,00001.022391,00002.084646,00001.803596,00001.881865,00001.899068,00001.565933,00001.804367,-00000.366342,00000.108970,-00000.399362,00000.123714,00000.013634,-00000.005226
0000000001586,00000.933674,00000.460439,00001.357275,00001.022202,00002.084535,00001.803686,00001.881585,00001.897772,00001.565185,00001.804424,-00000.366346,00000.108434,-00000.400102,00000.123232,00000.013328,-00000.005571
0000000001587,00000.933887,00000.460668,00001.356846,00001.022372,00002.084484,00001.803868,00001.881745,00001.896752,00001.564540,00001.804525,-00000.366649,00000.107641,-00000.400926,00000.122731,00000.013058,-00000.005900
0000000001588,00000.934149,00000.460902,00001.356799,00001.022574,00002.084752,00001.803582,00001.881869,00001.895650,00001.563903,00001.804936,-00000.367015,00000.106821,-00000.401556,00000.122321,00000.012797,-00000.006194
0000000001589,00000.933968,00000.461460,00001.356433,00001.022718,00002.085072,00001.803374,00001.882005,00001.894781,00001.564081,00001.805021,-00000.367635,00000.106146,-00000.402258,00000.121895,00000.012205,-00000.006474
0000000001590,00000.933828,00000.461659,00001.356030,00001.022527,00002.084938,00001.803131,00001.882112,00001.893843,00001.564264,00001.805371,-00000.369399,00000.105449,-00000.402794,00000.121546,00000.011983,-00000.006724
0000000001591,00000.934037,00000.461772,00001.356081,00001.022287,00002.084847,00001.803316,00001.881865,00001.893466,00001.564052,00001.805444,-00000.372466,00000.105237,-00000.403391,00000.121184,00000.011478,-00000.006963
0000000001592,00000.934280,00000.461941,00001.356101,00001.022125,00002.085095,00001.803472,00001.881955,00001.893030,00001.563483,00001.805742,-00000.377958,00000.105006,-00000.403485,00000.120886,00000.010927,-00000.007175
0000000001593,00000.934458,00000.462400,00001.356145,00001.022284,00002.085381,00001.803630,00001.882107,00001.892710,00001.563302,00001.806167,-00000.386011,00000.104826,-00000.403268,00000.120940,00000.010497,-00000.007741
0000000001594,00000.934665,00000.462907,00001.356162,00001.022145,00002.085592,00001.803763,00001.882184,00001.891975,00001.563906,00001.806058,-00000.396128,00000.103903,-00000.402622,00000.121050,00000.009665,-00000.008285
0000000001595,00000.934816,00000.462934,00001.356199,00001.020829,00002.085836,00001.803897,00001.882314,00001.891703,00001.563390,00001.806420,-00000.408788,00000.102661,-00000.402074,00000.121096,00000.008936,-00000.008767
0000000001596,00000.934630,00000.463003,00001.355851,00001.018897,00002.085653,00001.804010,00001.882017,00001.890715,00001.562452,00001.806327,-00000.427559,00000.101513,-00000.400799,00000.121552,00000.008590,-00000.009230
0000000001597,00000.934396,00000.462664,00001.355520,00001.014875,00002.085860,00001.804487,00001.881402,00001.889757,00001.561287,00001.806635,-00000.452123,00000.100819,-00000.399244,00000.121954,00000.007970,-00000.009640
0000000001598,00000.933875,00000.461271,00001.354497,00001.009602,00002.086067,00001.804220,00001.880060,00001.888191,00001.560126,00001.806193,-00000.483703,00000.099116,-00000.398159,00000.122343,00000.007676,-00000.010034
0000000001599,00000.932950,00000.458806,00001.352402,00001.002912,00002.086243,00001.803175,00001.878086,00001.885561,00001.558772,00001.805004,-00000.522754,00000.096348,-00000.396472,00000.123048,00000.007148,-00000.010383
0000000001600,00000.932143,00000.455444,00001.349717,00000.995522,00002.086057,00001.802586,00001.874767,00001.881688,00001.556695,00001.803539,-00000.571042,00000.093085,-00000.394460,00000.124830,00000.006897,-00000.010719
0000000001601,00000.930993,00000.451168,00001.346482,00000.984748,00002.085844,00001.801333,00001.871272,00001.876910,00001.553365,00001.801439,-00000.634761,00000.088914,-00000.391210,00000.128332,00000.006810,-00000.011016
0000000001602,00000.929944,00000.445403,00001.342383,00000.966121,00002.085685,00001.799743,00001.868084,00001.871073,00001.549058,00001.799103,-00000.711786,00000.084322,-00000.385506,00000.133477,00000.007323,-00000.011664
0000000001603,00000.928239,00000.438861,00001.337452,00000.940986,00002.085141,00001.797225,00001.864746,00001.857573,00001.542595,00001.796590,-00000.806299,00000.078958,-00000.376572,00000.141175,00000.007975,-00000.012280
0000000001604,00000.925532,00000.430325,00001.330335,00000.911706,00002.084644,00001.792244,00001.861306,00001.841721,00001.535300,00001.793513,-00000.921210,00000.072146,-00000.364461,00000.151359,00000.008048,-00000.012469
0000000001605,00000.921178,00000.417500,00001.321421,00000.880876,00002.083818,00001.785747,00001.858102,00001.824424,00001.525082,00001.789559,-00001.055726,00000.063226,-00000.351051,00000.161903,00000.008240,-00000.012268
0000000001606,00000.914520,00000.402253,00001.312822,00000.848331,00002.083031,00001.778241,00001.854811,00001.807300,00001.512705,00001.782587,-00001.205792,00000.050897,-00000.336749,00000.171662,00000.007939,-00000.012429
0000000001607,00000.906823,00000.384079,00001.303782,00000.813378,00002.081603,00001.770171,00001.851357,00001.791124,00001.499653,00001.774867,-00001.366017,00000.035322,-00000.322068,00000.181001,00000.007740,-00000.012621
0000000001608,00000.898253,00000.364568,00001.295011,00000.778417,00002.079844,00001.762330,00001.847830,00001.775459,00001.484762,00001.767118,-00001.532949,00000.017933,-00000.305177,00000.191485,00000.007484,-00000.012758
0000000001609,00000.888072,00000.345106,00001.286227,00000.743220,00002.078265,00001.752920,00001.844527,00001.760599,00001.470023,00001.758732,-00001.707442,-00000.001856,-00000.285060,00000.203063,00000.006589,-00000.012558
0000000001610,00000.876785,00000.327045,00001.277309,00000.707290,00002.076406,00001.743343,00001.840073,00001.746538,00001.454807,00001.751047,-00001.882566,-00000.021376,-00000.261248,00000.217430,00000.005646,-00000.011223
0000000001611,00000.865217,00000.309389,00001.268018,00000.672248,00002.074336,00001.733518,00001.835448,00001.733525,00001.440446,00001.743182,-00002.058322,-00000.040399,-00000.233239,00000.235268,00000.005247,-00000.009965
0000000001612,00000.853069,00000.291474,00001.258249,00000.636944,00002.072391,00001.721737,00001.830930,00001.720829,00001.425316,00001.733737,-00002.236428,-00000.061007,-00000.202810,00000.255480,00000.005169,-00000.008466
0000000001613,00000.839955,00000.273541,00001.247074,00000.602759,00002.069540,00001.710471,00001.825179,00001.706124,00001.409825,00001.724503,-00002.414709,-00000.082280,-00000.170622,00000.277196,00000.005555,-00000.007032
0000000001614,00000.827437,00000.255751,00001.234767,00000.563998,00002.066433,00001.697902,00001.818068,00001.691325,00001.394042,00001.713197,-00002.591727,-00000.104540,-00000.137461,00000.299481,00000.006214,-00000.005393
0000000001615,00000.815547,00000.239395,00001.222351,00000.525101,00002.064006,00001.683232,00001.811358,00001.676992,00001.378678,00001.704247,-00002.763814,-00000.128818,-00000.104980,00000.321596,00000.006906,-00000.004172
0000000001616,00000.804165,00000.224251,00001.209698,00000.488476,00002.061361,00001.668542,00001.804216,00001.662942,00001.363428,00001.694623,-00002.928295,-00000.154298,-00000.072034,00000.344195,00000.007467,-00000.002777
0000000001617,00000.793318,00000.210328,00001.197677,00000.453911,00002.058932,00001.654965,00001.796689,00001.650741,00001.348535,00001.680111,-00003.086765,-00000.180407,-00000.037127,00000.368101,00000.008781,-00000.000650
0000000001618,00000.782177,00000.197435,00001.186179,00000.422370,00002.056317,00001.641733,00001.789521,00001.638780,00001.334464,00001.664299,-00003.240574,-00000.206089,-00000.001099,00000.392056,00000.010347,00000.001989
0000000001619,00000.771854,00000.185582,00001.174858,00000.392945,00002.053524,00001.629813,00001.782388,00001.628031,00001.321423,00001.649043,-00003.388177,-00000.231581,00000.033696,00000.414946,00000.013643,00000.005252
0000000001620,00000.762007,00000.174607,00001.163256,00000.366094,00002.050935,00001.618911,00001.775923,00001.617849,00001.309082,00001.635945,-00003.531087,-00000.258160,00000.066544,00000.435702,00000.017879,00000.008949
0000000001621,00000.753220,00000.164516,00001.151804,00000.341044,00002.048558,00001.609126,00001.769126,00001.609060,00001.297254,00001.616427,-00003.669802,-00000.286029,00000.099430,00000.456277,00000.021772,00000.012089
0000000001622,00000.744837,00000.155173,00001.140476,00000.318186,00002.046354,00001.599483,00001.762896,00001.600755,00001.286748,00001.595844,-00003.803070,-00000.314461,00000.130658,00000.476486,00000.024653,00000.013060
0000000001623,00000.736268,00000.146583,00001.130001,00000.296861,00002.044693,00001.590427,00001.756746,00001.593999,00001.277042,00001.575237,-00003.928414,-00000.342176,00000.160106,00000.495815,00000.027605,00000.010655
0000000001624,00000.729131,00000.138629,00001.120721,00000.277402,00002.042816,00001.583306,00001.751081,00001.588017,00001.268461,00001.555538,-00004.047308,-00000.368920,00000.189593,00000.514833,00000.030057,00000.006765
0000000001625,00000.722925,00000.131316,00001.111804,00000.259248,00002.041039,00001.576685,00001.745845,00001.582628,00001.260923,00001.536545,-00004.160906,-00000.394328,00000.218652,00000.533102,00000.032570,00000.002540
0000000001626,00000.717212,00000.124545,00001.103177,00000.242682,00002.039079,00001.571712,00001.740297,00001.577899,00001.253981,00001.517598,-00004.267199,-00000.417820,00000.247745,00000.549655,00000.034657,-00000.002223
0000000001627,00000.711203,00000.118320,00001.095224,00000.227228,00002.037567,00001.567527,00001.735477,00001.574037,00001.247565,00001.500341,-00004.361729,-00000.439450,00000.275023,00000.563393,00000.034620,-00000.005819
0000000001628,00000.704889,00000.112556,00001.087880,00000.213126,00002.036624,00001.564018,00001.731116,00001.570374,00001.242743,00001.483849,-00004.448225,-00000.459086,00000.301966,00000.576396,00000.033494,-00000.008785
0000000001629,00000.698685,00000.107256,00001.081109,00000.199970,00002.035336,00001.561907,00001.727013,00001.567086,00001.238732,00001.468795,-00004.528335,-00000.477137,00000.327002,00000.589906,00000.032011,-00000.011121
0000000001630,00000.692947,00000.102349,00001.074857,00000.187964,00002.034533,00001.559283,00001.723301,00001.563968,00001.234990,00001.454755,-00004.602333,-00000.492039,00000.351027,00000.603878,00000.030690,-00000.012558
0000000001631,00000.687666,00000.097837,00001.069093,00000.176765,00002.033800,00001.560025,00001.719808,00001.561169,00001.231213,00001.441940,-00004.670168,-00000.505229,00000.375605,00000.617555,00000.029065,-00000.013096
0000000001632,00000.682781,00000.093660,00001.063408,00000.166544,00002.032753,00001.561782,00001.716285,00001.558514,00001.227665,00001.429625,-00004.731710,-00000.519367,00000.398235,00000.627998,00000.027215,-00000.013230
0000000001633,00000.678285,00000.089819,00001.058501,00000.157010,00002.031766,00001.563502,00001.713311,00001.556132,00001.224449,00001.419441,-00004.785830,-00000.533861,00000.418795,00000.635288,00000.025106,-00000.013325
0000000001634,00000.674126,00000.086263,00001.054388,00000.148309,00002.031238,00001.566449,00001.710675,00001.553871,00001.221065,00001.410771,-00004.836408,-00000.548072,00000.438785,00000.640913,00000.023168,-00000.013440
0000000001635,00000.670299,00000.082993,00001.050210,00000.140193,00002.030398,00001.570815,00001.708143,00001.551843,00001.217965,00001.402827,-00004.887197,-00000.561499,00000.459554,00000.648207,00000.021735,-00000.013158
0000000001636,00000.666396,00000.079966,00001.045982,00000.132786,00002.029949,00001.575863,00001.706262,00001.549556,00001.215085,00001.395447,-00004.941500,-00000.575412,00000.481288,00000.657712,00000.020449,-00000.013255
0000000001637,00000.662775,00000.077183,00001.042426,00000.125876,00002.029596,00001.582483,00001.704107,00001.547467,00001.212445,00001.388684,-00004.998159,-00000.590833,00000.501144,00000.667187,00000.019955,-00000.013378
0000000001638,00000.659815,00000.074605,00001.038827,00000.119571,00002.029576,00001.589683,00001.702142,00001.545520,00001.209994,00001.382401,-00005.053095,-00000.606668,00000.518558,00000.675279,00000.019948,-00000.013824
0000000001639,00000.657095,00000.072236,00001.035437,00000.113689,00002.029276,00001.597858,00001.700308,00001.543741,00001.207747,00001.376643,-00005.104231,-00000.623423,00000.533648,00000.680442,00000.019527,-00000.013928
0000000001640,00000.654576,00000.070042,00001.032373,00000.108321,00002.028896,00001.607252,00001.698272,00001.542084,00001.205659,00001.371295,-00005.150635,-00000.639080,00000.548472,00000.684428,00000.018795,-00000.013945
0000000001641,00000.652260,00000.068025,00001.029487,00000.103314,00002.028278,00001.617476,00001.696348,00001.540570,00001.203746,00001.366394,-00005.191265,-00000.652619,00000.561681,00000.688098,00000.017712,-00000.014034
0000000001642,00000.650115,00000.066157,00001.026516,00000.098744,00002.027955,00001.627288,00001.694978,00001.539159,00001.201970,00001.361840,-00005.230043,-00000.665947,00000.571762,00000.690766,00000.016726,-00000.014048
0000000001643,00000.648870,00000.064440,00001.024059,00000.094481,00002.028154,00001.636717,00001.693703,00001.538233,00001.200341,00001.358031,-00005.268260,-00000.679287,00000.582281,00000.693528,00000.015441,-00000.014124
0000000001644,00000.648132,00000.062850,00001.021893,00000.090591,00002.028242,00001.646521,00001.692899,00001.537394,00001.198828,00001.354154,-00005.305262,-00000.692810,00000.593765,00000.697613,00000.014239,-00000.014136
0000000001645,00000.647797,00000.061388,00001.019438,00000.086962,00002.027686,00001.655274,00001.691813,00001.536243,00001.197442,00001.350549,-00005.340698,-00000.705617,00000.606348,00000.702866,00000.013507,-00000.014200
0000000001646,00000.647169,00000.060034,00001.017231,00000.083650,00002.027398,00001.664346,00001.690767,00001.535530,00001.196154,00001.346886,-00005.375101,-00000.717130,00000.620114,00000.710334,00000.012484,-00000.014211
0000000001647,00000.646884,00000.058790,00001.015504,00000.080561,00002.027650,00001.673248,00001.690205,00001.535275,00001.195700,00001.343816,-00005.408170,-00000.728758,00000.632277,00000.717709,00000.011499,-00000.014265
0000000001648,00000.647075,00000.057637,00001.013988,00000.077742,00002.027404,00001.682059,00001.689314,00001.534667,00001.195329,00001.340698,-00005.437819,-00000.740010,00000.641820,00000.724792,00000.010991,-00000.014274
0000000001649,00000.647558,00000.056578,00001.012518,00000.075112,00002.027982,00001.691089,00001.689561,00001.536628,00001.195305,00001.337722,-00005.460529,-00000.748820,00000.651812,00000.732521,00000.010515,-00000.014321
0000000001650,00000.648447,00000.055597,00001.011228,00000.072712,00002.027773,00001.700404,00001.689529,00001.538650,00001.195715,00001.335068,-00005.477788,-00000.755859,00000.663201,00000.741091,00000.010082,-00000.014328
0000000001651,00000.648858,00000.054695,00001.009977,00000.070473,00002.028265,00001.709542,00001.689376,00001.540319,00001.195332,00001.332172,-00005.494582,-00000.760820,00000.676060,00000.751298,00000.009314,-00000.014005
0000000001652,00000.649614,00000.053860,00001.008878,00000.068430,00002.028450,00001.719648,00001.688986,00001.539863,00001.194955,00001.329549,-00005.511451,-00000.764999,00000.688658,00000.762947,00000.008583,-00000.014012
0000000001653,00000.649964,00000.053092,00001.007450,00000.066524,00002.028506,00001.728516,00001.688493,00001.538019,00001.194629,00001.327084,-00005.527561,-00000.769948,00000.699968,00000.773814,00000.007929,-00000.014100
0000000001654,00000.650245,00000.052381,00001.006152,00000.064785,00002.028663,00001.735669,00001.687435,00001.536543,00001.193220,00001.324851,-00005.542285,-00000.775681,00000.710330,00000.783005,00000.007669,-00000.014105
0000000001655,00000.649817,00000.051728,00001.004210,00000.063162,00002.027985,00001.742492,00001.686290,00001.534610,00001.191854,00001.322389,-00005.555274,-00000.780983,00000.720684,00000.792255,00000.007475,-00000.014180
0000000001656,00000.648968,00000.051122,00001.002380,00000.061681,00002.028119,00001.748581,00001.685389,00001.532628,00001.189929,00001.320489,-00005.564906,-00000.784776,00000.730956,00000.801894,00000.006892,-00000.014184
0000000001657,00000.647878,00000.050566,00001.000364,00000.060300,00002.027542,00001.754027,00001.683689,00001.530257,00001.187677,00001.318756,-00005.573061,-00000.787837,00000.740133,00000.811946,00000.006364,-00000.014248
0000000001658,00000.646067,00000.050051,00000.997717,00000.059040,00002.026930,00001.759936,00001.681834,00001.526393,00001.184950,00001.317138,-00005.579447,-00000.790341,00000.748515,00000.822327,00000.005867,-00000.014252
0000000001659,00000.644051,00000.049577,00000.994188,00000.057864,00002.026439,00001.764572,00001.679661,00001.521834,00001.181582,00001.315663,-00005.582399,-00000.793673,00000.755964,00000.830884,00000.005780,-00000.014306
0000000001660,00000.642146,00000.049138,00000.991209,00000.056791,00002.025918,00001.768877,00001.677719,00001.517819,00001.178898,00001.315011,-00005.583119,-00000.797981,00000.762374,00000.837183,00000.005720,-00000.014309
0000000001661,00000.640067,00000.048735,00000.988204,00000.055790,00002.025863,00001.773187,00001.676232,00001.513576,00001.176394,00001.314843,-00005.584180,-00000.801543,00000.768716,00000.843017,00000.005284,-00000.014355
0000000001662,00000.638083,00000.048362,00000.985305,00000.054876,00002.025420,00001.777577,00001.674579,00001.509433,00001.173746,00001.315014,-00005.586244,-00000.803759,00000.775987,00000.850192,00000.004869,-00000.014358
0000000001663,00000.636313,00000.048019,00000.982385,00000.054024,00002.025010,00001.781609,00001.672950,00001.502555,00001.170526,00001.316686,-00005.585697,-00000.803526,00000.784288,00000.859149,00000.004498,-00000.014398
0000000001664,00000.634261,00000.047701,00000.978829,00000.053246,00002.024632,00001.785709,00001.671180,00001.496851,00001.167546,00001.318282,-00005.582738,-00000.802148,00000.792291,00000.867435,00000.004508,-00000.014400
0000000001665,00000.632392,00000.047409,00000.975254,00000.052521,00002.024283,00001.789867,00001.669793,00001.490996,00001.164804,00001.320431,-00005.580095,-00000.800136,00000.798995,00000.873246,00000.004192,-00000.014433
0000000001666,00000.630645,00000.047138,00000.971864,00000.051859,00002.023962,00001.794083,00001.669012,00001.485052,00001.162630,00001.321427,-00005.576850,-00000.797148,00000.804720,00000.877034,00000.003838,-00000.014435
0000000001667,00000.629053,00000.046889,00000.969546,00000.051241,00002.024028,00001.800162,00001.668194,00001.480068,00001.160297,00001.322530,-00005.572061,-00000.793984,00000.811153,00000.879804,00000.003931,-00000.014464
0000000001668,00000.627929,00000.046659,00000.967386,00000.050678,00002.023754,00001.806290,00001.667529,00001.475008,00001.158083,00001.324104,-00005.565308,-00000.789990,00000.819292,00000.882304,00000.003630,-00000.014466
0000000001669,00000.626937,00000.046447,00000.965775,00000.050152,00002.023810,00001.812191,00001.667196,00001.470402,00001.156459,00001.326495,-00005.558329,-00000.784394,00000.828759,00000.886476,00000.003347,-00000.014490
0000000001670,00000.625980,00000.046251,00000.964299,00000.049672,00002.023940,00001.818134,00001.667355,00001.466094,00001.154938,00001.329286,-00005.551854,-00000.777728,00000.838227,00000.891506,00000.003090,-00000.014491
0000000001671,00000.625135,00000.046071,00000.963291,00000.049225,00002.023988,00001.823520,00001.667434,00001.462536,00001.153555,00001.331683,-00005.544824,-00000.770788,00000.847374,00000.896146,00000.002849,-00000.014149
0000000001672,00000.623958,00000.045904,00000.962397,00000.048816,00002.024461,00001.828579,00001.667932,00001.458868,00001.152260,00001.334059,-00005.535322,-00000.763299,00000.855072,00000.899703,00000.002631,-00000.014150
0000000001673,00000.622876,00000.045750,00000.961539,00000.048435,00002.024502,00001.833164,00001.668000,00001.455839,00001.151083,00001.337189,-00005.520993,-00000.754851,00000.861771,00000.901839,00000.002788,-00000.014222
0000000001674,00000.622236,00000.045608,00000.961866,00000.048088,00002.024542,00001.837471,00001.668424,00001.453080,00001.150343,00001.343928,-00005.502020,-00000.743760,00000.867235,00000.903416,00000.002965,-00000.014223
0000000001675,00000.620952,00000.045477,00000.962224,00000.047763,00002.024939,00001.841375,00001.669207,00001.450139,00001.150067,00001.350946,-00005.483654,-00000.730763,00000.872575,00000.906685,00000.003099,-00000.014284
0000000001676,00000.618957,00000.045356,00000.962503,00000.047467,00002.024974,00001.845041,00001.669568,00001.447064,00001.149437,00001.357771,-00005.468228,-00000.715517,00000.880129,00000.914558,00000.002887,-00000.014285
0000000001677,00000.616413,00000.045245,00000.962807,00000.047191,00002.024949,00001.848001,00001.669872,00001.444197,00001.148476,00001.363745,-00005.453681,-00000.698285,00000.887577,00000.924234,00000.002638,-00000.013974
0000000001678,00000.612900,00000.045142,00000.963407,00000.046939,00002.024978,00001.851122,00001.669817,00001.441580,00001.147577,00001.369555,-00005.439823,-00000.680590,00000.894008,00000.933838,00000.002458,-00000.013975
0000000001679,00000.608920,00000.045047,00000.964392,00000.046704,00002.024957,00001.854005,00001.669712,00001.439140,00001.146759,00001.375367,-00005.426715,-00000.662293,00000.898898,00000.942802,00000.002246,-00000.014073
0000000001680,00000.604841,00000.044960,00000.965266,00000.046490,00002.024982,00001.856662,00001.670391,00001.436912,00001.146357,00001.380676,-00005.414917,-00000.644326,00000.902921,00000.952066,00000.002092,-00000.014073
0000000001681,00000.600728,00000.044879,00000.966467,00000.046289,00002.025327,00001.859479,00001.671028,00001.434834,00001.145661,00001.385260,-00005.403758,-00000.626210,00000.906721,00000.963324,00000.001912,-00000.014157
0000000001682,00000.596892,00000.044805,00000.967574,00000.046470,00002.025711,00001.861741,00001.671968,00001.432937,00001.145681,00001.389417,-00005.392264,-00000.608376,00000.910872,00000.975564,00000.001781,-00000.013795
0000000001683,00000.593391,00000.044736,00000.968596,00000.046299,00002.026005,00001.864139,00001.673236,00001.431531,00001.145814,00001.393683,-00005.381312,-00000.591502,00000.915195,00000.987325,00000.001991,-00000.013503
0000000001684,00000.590489,00000.044672,00000.969901,00000.046090,00002.025969,00001.866790,00001.674399,00001.430279,00001.145831,00001.397584,-00005.372253,-00000.575594,00000.919454,00000.997383,00000.001879,-00000.013557
0000000001685,00000.587507,00000.044614,00000.970772,00000.045945,00002.026219,00001.868832,00001.675841,00001.429082,00001.145944,00001.401578,-00005.363293,-00000.561230,00000.922771,00001.005581,00000.001695,-00000.013672
0000000001686,00000.584674,00000.044560,00000.971882,00000.045767,00002.026551,00001.871089,00001.677194,00001.428017,00001.146684,00001.405625,-00005.350864,-00000.546962,00000.924946,00001.014143,00000.001600,-00000.013718
0000000001687,00000.582499,00000.044510,00000.972986,00000.045643,00002.026401,00001.873552,00001.678422,00001.426998,00001.147869,00001.409388,-00005.337069,-00000.533282,00000.927045,00001.023299,00000.001443,-00000.013816
0000000001688,00000.580450,00000.044464,00000.974295,00000.045491,00002.026684,00001.875836,00001.679937,00001.426091,00001.148862,00001.413559,-00005.324312,-00000.521499,00000.928170,00001.032401,00000.001362,-00000.013855
0000000001689,00000.579324,00000.044422,00000.975597,00000.045386,00002.026919,00001.878296,00001.680982,00001.425223,00001.149870,00001.416762,-00005.311480,-00000.511667,00000.929957,00001.041284,00000.001228,-00000.013575
0000000001690,00000.579393,00000.044383,00000.976348,00000.045257,00002.027522,00001.880966,00001.682271,00001.424451,00001.151078,00001.419587,-00005.297717,-00000.503450,00000.932003,00001.048308,00000.001159,-00000.013972
0000000001691,00000.579886,00000.044347,00000.977457,00000.045168,00002.028448,00001.883786,00001.683524,00001.424438,00001.152299,00001.424491,-00005.286067,-00000.496532,00000.934613,00001.053330,00000.001045,-00000.014822
0000000001692,00000.580308,00000.044313,00000.978459,00000.045058,00002.029325,00001.886785,00001.684984,00001.424506,00001.153691,00001.429798,-00005.275077,-00000.490624,00000.937080,00001.057495,00000.000987,-00000.015885
0000000001693,00000.580727,00000.044282,00000.979403,00000.044981,00002.030476,00001.890274,00001.686413,00001.424495,00001.155093,00001.435061,-00005.265885,-00000.484735,00000.939664,00001.060682,00000.000890,-00000.017334
0000000001694,00000.581086,00000.044254,00000.979893,00000.044888,00002.031222,00001.893915,00001.687656,00001.424553,00001.156640,00001.439580,-00005.257617,-00000.478255,00000.942491,00001.062414,00000.001203,-00000.018239
0000000001695,00000.581081,00000.044228,00000.980334,00000.044823,00002.031476,00001.896885,00001.688510,00001.424181,00001.157834,00001.443334,-00005.249067,-00000.471427,00000.946142,00001.064764,00000.001483,-00000.018747
0000000001696,00000.581024,00000.044204,00000.981114,00000.044743,00002.031749,00001.899984,00001.688843,00001.423868,00001.158788,00001.447181,-00005.239126,-00000.464097,00000.949274,00001.067690,00000.001750,-00000.019155
0000000001697,00000.580656,00000.044182,00000.981852,00000.044688,00002.031602,00001.902876,00001.689207,00001.423551,00001.159442,00001.451103,-00005.227856,-00000.456471,00000.952382,00001.070779,00000.001263,-00000.018862
0000000001698,00000.579882,00000.044161,00000.982517,00000.044620,00002.031108,00001.905514,00001.689490,00001.422921,00001.159529,00001.454740,-00005.217217,-00000.448779,00000.954685,00001.073995,00000.001127,-00000.018120
0000000001699,00000.578480,00000.044142,00000.983508,00000.044573,00002.030984,00001.907976,00001.689800,00001.422652,00001.159360,00001.458079,-00005.207260,-00000.440473,00000.955517,00001.077713,00000.001075,-00000.017871
0000000001700,00000.576007,00000.044124,00000.984073,00000.044878,00002.030564,00001.909859,00001.690042,00001.422116,00001.159434,00001.460812,-00005.198566,-00000.432111,00000.957115,00001.081902,00000.000959,-00000.017603
0000000001701,00000.574089,00000.044108,00000.984554,00000.044838,00002.030095,00001.911592,00001.689943,00001.421523,00001.159652,00001.463654,-00005.191541,-00000.423952,00000.959637,00001.086519,00000.000915,-00000.017390
0000000001702,00000.572709,00000.044093,00000.985035,00000.044735,00002.029737,00001.913195,00001.689785,00001.421067,00001.159715,00001.466344,-00005.183051,-00000.416108,00000.963900,00001.090448,00000.001179,-00000.017162
0000000001703,00000.571439,00000.044080,00000.985808,00000.044701,00002.029701,00001.914670,00001.690064,00001.420563,00001.159902,00001.468764,-00005.172354,-00000.408436,00000.967498,00001.092201,00000.001505,-00000.016981
0000000001704,00000.570264,00000.044067,00000.986580,00000.044613,00002.029396,00001.916035,00001.689930,00001.420537,00001.159955,00001.470328,-00005.161136,-00000.400307,00000.971127,00001.094095,00000.001730,-00000.016787
0000000001705,00000.568820,00000.044055,00000.987238,00000.044584,00002.029002,00001.917291,00001.690167,00001.420470,00001.159751,00001.470937,-00005.148039,-00000.391599,00000.974190,00001.097038,00000.001644,-00000.016633
0000000001706,00000.567820,00000.044045,00000.988258,00000.044510,00002.028743,00001.918453,00001.690415,00001.420449,00001.160159,00001.472268,-00005.133410,-00000.383228,00000.976191,00001.100827,00000.001472,-00000.016467
0000000001707,00000.566953,00000.044035,00000.989180,00000.044485,00002.029133,00001.919522,00001.690980,00001.420755,00001.160711,00001.474601,-00005.116818,-00000.375453,00000.978436,00001.105510,00000.001399,-00000.016336
0000000001708,00000.566345,00000.044009,00000.992971,00000.044346,00002.029366,00001.922680,00001.691853,00001.422741,00001.162550,00001.479302,-00005.073501,-00000.353880,00000.988727,00001.121056,00000.001067,-00000.015964
0000000001709,00000.566298,00000.043995,00000.995875,00000.044282,00002.030169,00001.925198,00001.693141,00001.425227,00001.164545,00001.482811,-00005.045383,-00000.338626,00000.992988,00001.135752,00000.001634,-00000.015767
0000000001710,00000.565169,00000.043983,00000.998711,00000.044228,00002.030489,00001.927341,00001.694237,00001.427344,00001.166969,00001.485434,-00005.013464,-00000.323463,00000.998066,00001.149350,00000.001391,-00000.015599
0000000001711,00000.564933,00000.043973,00001.001850,00000.044181,00002.031125,00001.929891,00001.695534,00001.429871,00001.169395,00001.487305,-00004.990283,-00000.309104,00001.006380,00001.165643,00000.001184,-00000.015456
0000000001712,00000.565060,00000.043969,00001.002852,00000.044170,00002.031741,00001.930460,00001.696095,00001.430955,00001.170721,00001.487030,-00004.979177,-00000.301421,00001.009411,00001.172941,00000.001475,-00000.015398
0000000001713,00000.565204,00000.043961,00001.005013,00000.044132,00002.032553,00001.932184,00001.697478,00001.435485,00001.174766,00001.488663,-00004.947308,-00000.286349,00001.011321,00001.182823,00000.001256,-00000.015285
0000000001714,00000.565597,00000.043957,00001.006905,00000.044108,00002.033524,00001.932930,00001.698719,00001.438880,00001.176685,00001.489690,-00004.931447,-00000.279340,00001.013022,00001.188997,00000.001167,-00000.014868
0000000001715,00000.566749,00000.043951,00001.010277,00000.044080,00002.034796,00001.934650,00001.700800,00001.445134,00001.179843,00001.491653,-00004.904136,-00000.267189,00001.015122,00001.199031,00000.001356,-00000.014471
0000000001716,00000.568455,00000.043946,00001.014236,00000.044055,00002.036605,00001.937202,00001.704749,00001.451183,00001.184346,00001.493688,-00004.874719,-00000.253942,00001.012555,00001.194513,00000.001880,-00000.014496
0000000001717,00000.569456,00000.043944,00001.016909,00000.044049,00002.037192,00001.939067,00001.707205,00001.454393,00001.187111,00001.495983,-00004.858559,-00000.244904,00001.012380,00001.192335,00000.002072,-00000.014511
0000000001718,00000.569908,00000.043942,00001.019420,00000.044034,00002.038146,00001.940100,00001.709924,00001.457059,00001.189630,00001.497234,-00004.841332,-00000.235046,00001.014361,00001.192118,00000.001963,-00000.014517
0000000001719,00000.571145,00000.043938,00001.024196,00000.044017,00002.039819,00001.942204,00001.713967,00001.462423,00001.195217,00001.499527,-00004.808918,-00000.215695,00001.019164,00001.192256,00000.002397,-00000.013810
0000000001720,00000.572923,00000.043934,00001.027899,00000.044002,00002.040519,00001.944358,00001.717409,00001.467353,00001.199973,00001.501841,-00004.783864,-00000.198495,00001.022527,00001.189834,00000.002766,-00000.013207
0000000001721,00000.574800,00000.043932,00001.030326,00000.043989,00002.041477,00001.946192,00001.721064,00001.471187,00001.205836,00001.503812,-00004.761448,-00000.180226,00001.023939,00001.185595,00000.003080,-00000.013057
0000000001722,00000.576036,00000.043930,00001.031382,00000.043986,00002.042155,00001.947396,00001.722709,00001.472873,00001.209218,00001.504879,-00004.750236,-00000.171951,00001.025173,00001.183776,00000.003181,-00000.012842
0000000001723,00000.577813,00000.043928,00001.032202,00000.043976,00002.043232,00001.948415,00001.725214,00001.475523,00001.212255,00001.505672,-00004.728466,-00000.157266,00001.029819,00001.182615,00000.002708,-00000.013109
0000000001724,00000.578012,00000.043927,00001.031611,00000.043969,00002.042933,00001.948666,00001.725011,00001.476504,00001.211703,00001.505104,-00004.717534,-00000.149618,00001.031698,00001.183214,00000.002541,-00000.013184
0000000001725,00000.577318,00000.043926,00001.030583,00000.043961,00002.042081,00001.948771,00001.721732,00001.475712,00001.209654,00001.504775,-00004.693371,-00000.137166,00001.030295,00001.183587,00000.002889,-00000.013400
0000000001726,00000.576838,00000.043925,00001.030137,00000.043959,00002.041573,00001.948988,00001.720322,00001.475199,00001.208565,00001.504961,-00004.681381,-00000.133720,00001.028396,00001.182638,00000.002634,-00000.013167
0000000001727,00000.577044,00000.043923,00001.028241,00000.043953,00002.040197,00001.947956,00001.717014,00001.474239,00001.206257,00001.504291,-00004.653524,-00000.127259,00001.025307,00001.179832,00000.002605,-00000.013386
0000000001728,00000.577582,00000.043922,00001.026263,00000.043947,00002.039389,00001.947441,00001.714560,00001.473784,00001.205018,00001.504084,-00004.627633,-00000.119582,00001.026305,00001.177806,00000.002218,-00000.013572
0000000001729,00000.578174,00000.043922,00001.025743,00000.043944,00002.039378,00001.947395,00001.713659,00001.473712,00001.204326,00001.504418,-00004.617695,-00000.116362,00001.026936,00001.177301,00000.002091,-00000.013612
0000000001730,00000.578907,00000.043921,00001.024137,00000.043939,00002.039417,00001.946963,00001.711704,00001.473335,00001.203737,00001.503829,-00004.600397,-00000.113208,00001.024790,00001.172386,00000.002143,-00000.013764
0000000001731,00000.580619,00000.043920,00001.022044,00000.043936,00002.039814,00001.948410,00001.710766,00001.475191,00001.204687,00001.505141,-00004.582043,-00000.110523,00001.023326,00001.166388,00000.001824,-00000.013894
0000000001732,00000.581403,00000.043920,00001.021209,00000.043935,00002.039849,00001.948689,00001.710895,00001.476252,00001.205813,00001.506114,-00004.571129,-00000.108068,00001.023746,00001.164060,00000.001677,-00000.013981
0000000001733,00000.583470,00000.043919,00001.019551,00000.043932,00002.040544,00001.949154,00001.712979,00001.478762,00001.209356,00001.507449,-00004.548421,-00000.105058,00001.026064,00001.159300,00000.001428,-00000.013716
0000000001734,00000.585078,00000.043919,00001.019109,00000.043930,00002.041164,00001.949709,00001.714823,00001.480185,00001.212081,00001.508606,-00004.537816,-00000.104075,00001.026754,00001.156102,00000.001322,-00000.013736
0000000001735,00000.589864,00000.043918,00001.017764,00000.053361,00002.041663,00001.950747,00001.717412,00001.482836,00001.217595,00001.510297,-00004.513168,-00000.101660,00001.028625,00001.149260,00000.001126,-00000.013871
0000000001736,00000.594300,00000.043918,00001.017344,00000.064291,00002.042451,00001.951631,00001.720341,00001.485819,00001.222651,00001.512098,-00004.481664,-00000.094887,00001.030944,00001.144525,00000.000958,-00000.013985
0000000001737,00000.596296,00000.043918,00001.017260,00000.069399,00002.042640,00001.952404,00001.722015,00001.487172,00001.225111,00001.513281,-00004.466380,-00000.090965,00001.031187,00001.142057,00000.000881,-00000.013706
0000000001738,00000.599777,00000.043918,00001.016552,00000.078307,00002.043283,00001.952678,00001.725348,00001.489510,00001.229776,00001.515002,-00004.436029,-00000.083969,00001.031674,00001.134402,00000.001113,-00000.013845
0000000001739,00000.601293,00000.043917,00001.016320,00000.082552,00002.044110,00001.952970,00001.727390,00001.490520,00001.232380,00001.515918,-00004.420581,-00000.080855,00001.032275,00001.129712,00000.001003,-00000.013856
0000000001740,00000.603102,00000.043917,00001.016676,00000.086617,00002.044555,00001.953275,00001.729274,00001.491863,00001.235198,00001.516467,-00004.404023,-00000.076562,00001.032451,00001.124982,00000.000947,-00000.013963
0000000001741,00000.606296,00000.043917,00001.017144,00000.095504,00002.045276,00001.953420,00001.733342,00001.494229,00001.240902,00001.517714,-00004.361539,-00000.056833,00001.032750,00001.118052,00000.001169,-00000.014064
0000000001742,00000.607926,00000.043917,00001.018993,00000.103070,00002.046615,00001.953907,00001.737531,00001.496969,00001.246120,00001.519138,-00004.315578,-00000.024437,00001.028651,00001.108161,00000.001358,-00000.014149
0000000001743,00000.608453,00000.043917,00001.020456,00000.106895,00002.047172,00001.954449,00001.739725,00001.498164,00001.248662,00001.520066,-00004.292065,-00000.005974,00001.026397,00001.102745,00000.001607,-00000.014156
0000000001744,00000.609400,00000.043917,00001.026166,00000.114218,00002.047866,00001.954783,00001.742964,00001.503584,00001.254540,00001.520778,-00004.247002,00000.026841,00001.026507,00001.098395,00000.001368,-00000.014228
0000000001745,00000.610569,00000.043917,00001.032841,00000.121178,00002.048820,00001.955066,00001.745722,00001.510737,00001.260633,00001.521747,-00004.206462,00000.052236,00001.026964,00001.095781,00000.001165,-00000.013926
0000000001746,00000.610930,00000.043916,00001.035635,00000.124581,00002.049243,00001.955236,00001.747342,00001.513986,00001.263517,00001.522578,-00004.188660,00000.062556,00001.026124,00001.093752,00000.001101,-00000.013974
0000000001747,00000.611201,00000.043916,00001.038161,00000.127466,00002.049632,00001.955308,00001.748795,00001.517190,00001.266546,00001.523297,-00004.174128,00000.072040,00001.025177,00001.091742,00000.001355,-00000.014032
0000000001748,00000.611376,00000.043916,00001.043415,00000.132456,00002.050324,00001.955876,00001.751411,00001.523045,00001.271942,00001.524254,-00004.149867,00000.091077,00001.024380,00001.087215,00000.001516,-00000.013759
0000000001749,00000.611163,00000.043916,00001.048251,00000.136342,00002.050549,00001.955998,00001.753276,00001.527668,00001.276173,00001.535590,-00004.122683,00000.109460,00001.022977,00001.078645,00000.002016,-00000.013890
0000000001750,00000.609981,00000.043916,00001.049867,00000.137090,00002.050447,00001.955739,00001.753550,00001.526670,00001.277127,00001.539747,-00004.109572,00000.118360,00001.022821,00001.074134,00000.001923,-00000.013920
0000000001751,00000.607072,00000.043916,00001.051930,00000.131216,00002.049929,00001.954067,00001.752919,00001.524223,00001.273694,00001.547328,-00004.086566,00000.133048,00001.019836,00001.065332,00000.001637,-00000.014026
0000000001752,00000.605346,00000.043916,00001.052460,00000.124340,00002.049925,00001.952668,00001.752439,00001.522809,00001.270628,00001.550768,-00004.075757,00000.140863,00001.017917,00001.061054,00000.001461,-00000.014096
0000000001753,00000.602038,00000.043916,00001.054137,00000.112381,00002.049484,00001.950002,00001.751249,00001.520211,00001.264534,00001.555984,-00004.053789,00000.155470,00001.017111,00001.054197,00000.001244,-00000.014177
0000000001754,00000.600783,00000.043916,00001.055234,00000.107183,00002.049475,00001.948691,00001.750946,00001.519332,00001.262292,00001.558966,-00004.044882,00000.161208,00001.017724,00001.051931,00000.001186,-00000.014195
0000000001755,00000.598517,00000.043916,00001.056498,00000.097775,00002.049102,00001.946615,00001.750340,00001.517251,00001.258525,00001.564051,-00004.028956,00000.170613,00001.016585,00001.046431,00000.001010,-00000.014261
0000000001756,00000.596588,00000.043916,00001.057212,00000.089767,00002.048421,00001.944848,00001.749461,00001.515479,00001.255681,00001.568381,-00004.009956,00000.178257,00001.014164,00001.040660,00000.000860,-00000.014317
0000000001757,00000.596083,00000.043916,00001.057769,00000.086155,00002.048109,00001.944207,00001.748846,00001.514829,00001.255786,00001.570544,-00004.001701,00000.181804,00001.014590,00001.039431,00000.001130,-00000.013991
0000000001758,00000.595671,00000.043916,00001.058182,00000.084400,00002.048204,00001.944070,00001.748713,00001.514696,00001.256526,00001.572429,-00003.996321,00000.182950,00001.015368,00001.039738,00000.001095,-00000.014002
0000000001759,00000.594891,00000.043916,00001.058283,00000.087450,00002.048019,00001.943044,00001.748439,00001.514029,00001.257244,00001.575513,-00003.991607,00000.180053,00001.014216,00001.038953,00000.000932,-00000.014097
0000000001760,00000.594952,00000.043916,00001.059094,00000.093311,00002.048588,00001.941808,00001.748932,00001.513825,00001.259307,00001.578863,-00003.987593,00000.176861,00001.010696,00001.037197,00000.001156,-00000.014177
0000000001761,00000.594949,00000.043916,00001.059846,00000.095557,00002.048704,00001.941829,00001.749124,00001.513687,00001.260352,00001.580561,-00003.986736,00000.174868,00001.009469,00001.038069,00000.001423,-00000.014239
0000000001762,00000.595727,00000.043916,00001.060425,00000.100213,00002.048445,00001.941500,00001.749152,00001.513533,00001.262678,00001.582798,-00003.989252,00000.167367,00001.008832,00001.042249,00000.001574,-00000.014298
0000000001763,00000.596808,00000.043916,00001.060681,00000.102240,00002.048503,00001.941513,00001.749399,00001.513503,00001.263956,00001.583781,-00003.994314,00000.161632,00001.008869,00001.043939,00000.001509,-00000.014304
0000000001764,00000.598761,00000.043916,00001.060773,00000.106265,00002.049362,00001.941593,00001.750112,00001.514102,00001.266109,00001.585902,-00004.004047,00000.153197,00001.009047,00001.045432,00000.001285,-00000.014354
0000000001765,00000.599640,00000.044279,00001.060974,00000.107914,00002.049380,00001.942015,00001.750230,00001.514326,00001.267379,00001.586633,-00004.006904,00000.150698,00001.009533,00001.046095,00000.001141,-00000.014392
0000000001766,00000.601535,00000.046039,00001.061385,00000.111458,00002.049746,00001.943109,00001.751545,00001.516254,00001.271563,00001.588693,-00004.010411,00000.147154,00001.008524,00001.048719,00000.000971,-00000.014066
0000000001767,00000.602565,00000.047382,00001.061589,00000.112971,00002.050045,00001.943788,00001.751906,00001.518312,00001.273640,00001.589608,-00004.012307,00000.144915,00001.007150,00001.050270,00000.000931,-00000.014070
0000000001768,00000.604750,00000.049043,00001.061545,00000.116489,00002.050675,00001.944619,00001.753334,00001.520373,00001.277981,00001.590500,-00004.011746,00000.142231,00001.004318,00001.050822,00000.000793,-00000.014154
0000000001769,00000.605918,00000.049793,00001.061724,00000.118440,00002.050995,00001.945196,00001.753979,00001.523014,00001.280225,00001.591630,-00004.008320,00000.142457,00001.002069,00001.048808,00000.000704,-00000.014224
0000000001770,00000.607967,00000.051821,00001.062023,00000.122596,00002.051484,00001.946905,00001.755462,00001.528003,00001.285401,00001.593310,-00004.002184,00000.141953,00000.998541,00001.044135,00000.000599,-00000.014285
0000000001771,00000.609228,00000.053422,00001.062149,00000.124827,00002.051668,00001.947270,00001.756673,00001.530337,00001.287926,00001.593867,-00003.999027,00000.140527,00000.997947,00001.041508,00000.000937,-00000.014288
0000000001772,00000.612599,00000.056724,00001.063836,00000.129121,00002.052782,00001.948308,00001.759569,00001.534964,00001.294134,00001.596665,-00003.989557,00000.135956,00000.996121,00001.036832,00000.001524,-00000.014340
0000000001773,00000.615832,00000.060262,00001.066361,00000.134591,00002.053368,00001.949192,00001.762035,00001.539628,00001.300870,00001.599772,-00003.974964,00000.130614,00000.991301,00001.032489,00000.001660,-00000.014384
0000000001774,00000.617280,00000.062493,00001.067281,00000.137823,00002.053853,00001.949402,00001.763123,00001.541632,00001.304365,00001.601340,-00003.970206,00000.128353,00000.989009,00001.031863,00000.001513,-00000.014421
0000000001775,00000.618947,00000.064361,00001.068148,00000.140698,00002.054229,00001.949944,00001.764496,00001.543598,00001.308055,00001.602781,-00003.965807,00000.126792,00000.986109,00001.030605,00000.001413,-00000.014422
0000000001776,00000.621598,00000.067126,00001.069669,00000.144446,00002.054963,00001.950948,00001.765866,00001.546615,00001.312720,00001.605705,-00003.955835,00000.125352,00000.981327,00001.025011,00000.001203,-00000.014454
0000000001777,00000.620953,00000.068753,00001.069875,00000.145097,00002.054861,00001.950351,00001.765581,00001.547733,00001.312701,00001.606380,-00003.946982,00000.125214,00000.980884,00001.022062,00000.001387,-00000.014482
0000000001778,00000.620511,00000.069559,00001.069771,00000.144459,00002.055215,00001.950125,00001.764909,00001.545812,00001.311916,00001.607046,-00003.942533,00000.123821,00000.980534,00001.021496,00000.001242,-00000.014504
0000000001779,00000.619302,00000.070099,00001.068511,00000.142569,00002.055076,00001.948925,00001.763678,00001.541607,00001.308752,00001.607159,-00003.935659,00000.116655,00000.980571,00001.024875,00000.001058,-00000.014524
0000000001780,00000.618539,00000.070284,00001.067769,00000.141731,00002.055011,00001.948375,00001.763117,00001.539728,00001.307553,00001.607027,-00003.935370,00000.112585,00000.981690,00001.030515,00000.001005,-00000.014525
0000000001781,00000.617986,00000.072894,00001.067169,00000.140247,00002.054539,00001.947798,00001.762152,00001.537153,00001.306489,00001.607505,-00003.935365,00000.104550,00000.981193,00001.046339,00000.001218,-00000.014179
0000000001782,00000.617760,00000.074525,00001.066888,00000.139590,00002.054548,00001.947342,00001.762101,00001.536740,00001.306559,00001.607699,-00003.932977,00000.101332,00000.979326,00001.052889,00000.001129,-00000.014193
0000000001783,00000.616960,00000.077229,00001.066420,00000.138424,00002.054146,00001.947281,00001.760925,00001.536424,00001.306005,00001.608078,-00003.926798,00000.095697,00000.973738,00001.061032,00000.001687,-00000.014259
0000000001784,00000.617005,00000.079531,00001.066021,00000.137431,00002.054892,00001.947229,00001.760286,00001.536880,00001.305534,00001.608763,-00003.923352,00000.089085,00000.968256,00001.067602,00000.002524,-00000.014316
0000000001785,00000.616828,00000.082662,00001.066217,00000.137354,00002.054849,00001.946840,00001.760037,00001.536126,00001.306077,00001.608917,-00003.917809,00000.087095,00000.966572,00001.072608,00000.002721,-00000.014355
0000000001786,00000.616680,00000.085482,00001.066770,00000.137311,00002.054801,00001.946459,00001.760105,00001.536180,00001.306946,00001.609346,-00003.909172,00000.085634,00000.965040,00001.076823,00000.002875,-00000.014364
0000000001787,00000.615315,00000.090910,00001.067407,00000.136847,00002.055087,00001.945804,00001.759951,00001.535221,00001.308149,00001.610568,-00003.888030,00000.082333,00000.959037,00001.081044,00000.003536,-00000.013679
0000000001788,00000.614152,00000.093596,00001.067496,00000.136845,00002.055056,00001.945885,00001.760134,00001.534204,00001.308906,00001.610989,-00003.874664,00000.080890,00000.955022,00001.082657,00000.003987,-00000.013036
0000000001789,00000.610987,00000.099994,00001.067662,00000.138626,00002.054941,00001.945678,00001.759613,00001.532451,00001.310180,00001.611241,-00003.844505,00000.078657,00000.950872,00001.088913,00000.004119,-00000.012186
0000000001790,00000.609389,00000.103657,00001.067740,00000.139635,00002.055228,00001.945389,00001.759709,00001.531695,00001.311078,00001.611513,-00003.830934,00000.077493,00000.950626,00001.092360,00000.004214,-00000.012345
0000000001791,00000.606932,00000.109648,00001.068596,00000.141364,00002.055087,00001.945618,00001.759977,00001.531403,00001.312755,00001.611687,-00003.807640,00000.075402,00000.944952,00001.094634,00000.004676,-00000.012686
0000000001792,00000.605202,00000.114748,00001.069687,00000.143199,00002.055330,00001.945451,00001.760205,00001.532243,00001.314908,00001.611110,-00003.789624,00000.076525,00000.943025,00001.102738,00000.005432,-00000.012976
0000000001793,00000.603367,00000.120178,00001.071705,00000.144761,00002.055900,00001.944946,00001.761124,00001.533321,00001.317466,00001.610981,-00003.771748,00000.080020,00000.937756,00001.115078,00000.006075,-00000.012861
0000000001794,00000.602783,00000.122892,00001.072949,00000.145616,00002.056195,00001.944706,00001.761548,00001.534018,00001.318600,00001.611315,-00003.764228,00000.081042,00000.935034,00001.119776,00000.006349,-00000.012625
0000000001795,00000.603485,00000.127111,00001.075207,00000.147544,00002.056273,00001.945037,00001.762268,00001.534832,00001.321334,00001.611519,-00003.751579,00000.083503,00000.929865,00001.124141,00000.006856,-00000.012924
0000000001796,00000.604305,00000.129045,00001.076228,00000.148621,00002.056852,00001.945546,00001.762574,00001.535691,00001.323311,00001.611759,-00003.747094,00000.084911,00000.926604,00001.124800,00000.007089,-00000.013404
0000000001797,00000.605143,00000.133075,00001.079087,00000.150465,00002.057195,00001.946115,00001.763141,00001.536982,00001.328611,00001.612259,-00003.739896,00000.088973,00000.917609,00001.124427,00000.007124,-00000.013588
0000000001798,00000.605934,00000.134795,00001.081252,00000.151255,00002.057014,00001.946593,00001.763403,00001.536732,00001.331126,00001.612149,-00003.736400,00000.090430,00000.911267,00001.124249,00000.007709,-00000.013705
0000000001799,00000.607618,00000.138695,00001.084452,00000.153433,00002.057696,00001.947006,00001.764572,00001.539682,00001.337077,00001.612228,-00003.722084,00000.093672,00000.894032,00001.123596,00000.009465,-00000.013481
0000000001800,00000.608689,00000.141290,00001.086451,00000.155288,00002.057551,00001.947358,00001.766656,00001.542193,00001.343957,00001.611933,-00003.703730,00000.097520,00000.878997,00001.120137,00000.008783,-00000.013653
0000000001801,00000.609159,00000.142847,00001.087751,00000.156842,00002.057631,00001.947680,00001.767744,00001.543170,00001.347953,00001.612159,-00003.697564,00000.099016,00000.874090,00001.117294,00000.008505,-00000.013727
0000000001802,00000.609601,00000.144225,00001.088878,00000.157955,00002.057791,00001.948020,00001.768793,00001.544331,00001.351628,00001.612045,-00003.693184,00000.099707,00000.870914,00001.114652,00000.008566,-00000.014162
0000000001803,00000.608926,00000.146723,00001.088405,00000.158774,00002.057995,00001.947133,00001.769162,00001.541435,00001.351628,00001.611414,-00003.683481,00000.098304,00000.864033,00001.107081,00000.009106,-00000.014959
0000000001804,00000.606175,00000.147398,00001.086913,00000.157295,00002.058168,00001.945652,00001.768387,00001.537880,00001.347638,00001.610878,-00003.670867,00000.097835,00000.854910,00001.100999,00000.009203,-00000.015637
0000000001805,00000.604966,00000.147695,00001.086263,00000.155659,00002.057809,00001.945015,00001.767451,00001.536651,00001.345329,00001.610808,-00003.664655,00000.097806,00000.850039,00001.099653,00000.009657,-00000.015945
0000000001806,00000.602441,00000.148951,00001.084728,00000.152829,00002.057647,00001.943486,00001.765842,00001.533808,00001.341187,00001.610361,-00003.651575,00000.097774,00000.835016,00001.097215,00000.011486,-00000.015751
0000000001807,00000.601476,00000.149860,00001.084254,00000.152693,00002.057824,00001.942592,00001.765513,00001.532588,00001.340059,00001.610395,-00003.642442,00000.097822,00000.825472,00001.096114,00000.012097,-00000.015671
0000000001808,00000.600558,00000.151520,00001.083743,00000.152844,00002.057297,00001.941061,00001.764192,00001.529987,00001.338152,00001.610735,-00003.621419,00000.097787,00000.805032,00001.098193,00000.014289,-00000.014792
0000000001809,00000.600167,00000.152275,00001.083342,00000.152707,00002.057029,00001.940768,00001.763252,00001.530470,00001.337345,00001.611055,-00003.613337,00000.097361,00000.795259,00001.100775,00000.015820,-00000.014048
0000000001810,00000.599443,00000.154664,00001.082604,00000.153581,00002.056621,00001.939508,00001.762630,00001.531449,00001.336567,00001.612748,-00003.602084,00000.097758,00000.779674,00001.103611,00000.018910,-00000.012684
0000000001811,00000.599190,00000.157424,00001.083063,00000.154688,00002.056273,00001.939523,00001.762101,00001.531919,00001.336630,00001.614190,-00003.590690,00000.098459,00000.762416,00001.104212,00000.023354,-00000.011524
0000000001812,00000.599216,00000.158836,00001.083810,00000.155189,00002.056142,00001.939309,00001.761967,00001.531188,00001.336610,00001.615057,-00003.583203,00000.098430,00000.753576,00001.105951,00000.025365,-00000.012083
0000000001813,00000.598634,00000.161338,00001.085179,00000.156057,00002.056228,00001.938628,00001.762262,00001.531334,00001.337392,00001.616155,-00003.565184,00000.097579,00000.735120,00001.106567,00000.025947,-00000.014640
0000000001814,00000.598429,00000.162445,00001.085803,00000.156432,00002.056088,00001.938151,00001.762301,00001.531680,00001.337764,00001.616408,-00003.554784,00000.096043,00000.723677,00001.104473,00000.026166,-00000.015793
0000000001815,00000.597964,00000.164773,00001.087601,00000.157115,00002.056907,00001.937643,00001.762546,00001.532479,00001.338737,00001.616943,-00003.531559,00000.093371,00000.700960,00001.096965,00000.025540,-00000.018524
0000000001816,00000.597206,00000.166393,00001.088406,00000.157696,00002.056880,00001.937573,00001.762755,00001.533159,00001.340292,00001.617398,-00003.505982,00000.089645,00000.681621,00001.089847,00000.024645,-00000.020849
0000000001817,00000.596632,00000.167134,00001.089115,00000.157959,00002.057452,00001.937136,00001.763008,00001.533524,00001.341176,00001.617992,-00003.496712,00000.085808,00000.671092,00001.086248,00000.024636,-00000.021127
0000000001818,00000.596072,00000.168402,00001.090057,00000.158052,00002.057343,00001.937142,00001.762786,00001.533323,00001.344182,00001.617928,-00003.482847,00000.075587,00000.650389,00001.079636,00000.026052,-00000.019437
0000000001819,00000.595595,00000.170208,00001.091223,00000.158132,00002.057251,00001.937146,00001.763684,00001.532426,00001.346378,00001.618237,-00003.465602,00000.067250,00000.630226,00001.071467,00000.029434,-00000.016909
0000000001820,00000.595588,00000.171395,00001.092140,00000.157991,00002.057082,00001.937157,00001.763575,00001.532735,00001.347538,00001.618033,-00003.457543,00000.064305,00000.621588,00001.066780,00000.032417,-00000.015221
0000000001821,00000.595183,00000.173481,00001.092996,00000.158442,00002.057391,00001.936796,00001.763994,00001.532288,00001.350323,00001.617963,-00003.445512,00000.059096,00000.606796,00001.059072,00000.038843,-00000.012595
0000000001822,00000.594843,00000.175122,00001.094094,00000.158619,00002.057830,00001.936791,00001.764483,00001.532719,00001.352633,00001.618052,-00003.440963,00000.056071,00000.600517,00001.055597,00000.041117,-00000.012000
0000000001823,00000.594548,00000.180281,00001.096473,00000.158977,00002.058391,00001.937573,00001.765129,00001.533363,00001.357200,00001.618342,-00003.433211,00000.049910,00000.586681,00001.049189,00000.045887,-00000.009852
0000000001824,00000.594544,00000.182975,00001.097340,00000.159516,00002.058550,00001.938297,00001.765688,00001.532403,00001.359468,00001.618162,-00003.427369,00000.046804,00000.578041,00001.045109,00000.048353,-00000.008348
0000000001825,00000.594294,00000.187329,00001.097785,00000.160828,00002.058641,00001.939581,00001.766518,00001.533820,00001.363744,00001.618073,-00003.406039,00000.041295,00000.558840,00001.033368,00000.053861,-00000.004204
0000000001826,00000.594393,00000.189810,00001.097791,00000.161972,00002.058603,00001.940150,00001.766819,00001.534849,00001.365795,00001.618182,-00003.389584,00000.038857,00000.549883,00001.026985,00000.056870,-00000.002022
0000000001827,00000.594891,00000.195325,00001.098531,00000.164371,00002.059412,00001.940795,00001.768932,00001.534088,00001.370219,00001.618815,-00003.361537,00000.030539,00000.534144,00001.016125,00000.060748,00000.000093
0000000001828,00000.594589,00000.198932,00001.097348,00000.165324,00002.059374,00001.941345,00001.768917,00001.532352,00001.372171,00001.618266,-00003.342377,00000.018017,00000.517117,00001.001074,00000.062962,00000.000079
0000000001829,00000.594264,00000.200200,00001.096638,00000.164960,00002.059049,00001.941408,00001.768393,00001.531283,00001.370275,00001.617724,-00003.334864,00000.012454,00000.509330,00000.993528,00000.063724,-00000.000652
0000000001830,00000.592604,00000.202356,00001.094648,00000.163649,00002.058340,00001.940053,00001.767007,00001.528513,00001.365326,00001.615886,-00003.316768,00000.002983,00000.492727,00000.979298,00000.063318,-00000.003820
0000000001831,00000.590466,00000.204192,00001.093317,00000.161808,00002.058100,00001.937448,00001.765826,00001.526155,00001.361112,00001.614685,-00003.298824,-00000.004716,00000.472789,00000.962468,00000.058982,-00000.007606
0000000001832,00000.589318,00000.204971,00001.092885,00000.161037,00002.058095,00001.935555,00001.765408,00001.525070,00001.358858,00001.613896,-00003.289815,-00000.007739,00000.463326,00000.953307,00000.055957,-00000.009642
0000000001833,00000.587306,00000.207506,00001.092541,00000.159946,00002.057528,00001.931805,00001.764466,00001.523224,00001.354881,00001.612265,-00003.266809,-00000.012756,00000.448123,00000.933449,00000.049087,-00000.012199
0000000001834,00000.586424,00000.208844,00001.092616,00000.159577,00002.057720,00001.930347,00001.764275,00001.522801,00001.353491,00001.611810,-00003.252271,-00000.015144,00000.439553,00000.922079,00000.045270,-00000.012429
0000000001835,00000.585230,00000.210027,00001.092974,00000.159018,00002.057408,00001.928975,00001.763663,00001.522015,00001.351858,00001.611239,-00003.237790,-00000.018478,00000.429738,00000.910013,00000.041788,-00000.012562
0000000001836,00000.584116,00000.211166,00001.093038,00000.158704,00002.057572,00001.927371,00001.763501,00001.521292,00001.350675,00001.610852,-00003.223601,-00000.022325,00000.418815,00000.897795,00000.038901,-00000.012395
0000000001837,00000.583463,00000.212173,00001.093343,00000.158954,00002.057669,00001.926566,00001.763343,00001.520985,00001.350010,00001.610365,-00003.208371,-00000.025525,00000.407920,00000.886072,00000.035937,-00000.012508
0000000001838,00000.582515,00000.213506,00001.094123,00000.159412,00002.058171,00001.925564,00001.763568,00001.521096,00001.350454,00001.610036,-00003.193026,-00000.028438,00000.397896,00000.875307,00000.033116,-00000.012729
0000000001839,00000.581595,00000.214725,00001.094745,00000.159987,00002.058254,00001.924153,00001.763433,00001.521198,00001.350976,00001.609259,-00003.178247,-00000.031162,00000.387895,00000.864965,00000.030593,-00000.012825
