0000000000947,00000.996094,00000.727539,00001.401367,00000.957031,00002.099609,00001.840820,00001.884766,00001.958008,00001.621094,00001.816406,-00000.561523,-00000.039063,-00000.483398,-00000.048828,00000.004883,00000.009766
0000000000948,00000.991211,00000.727539,00001.396484,00000.957031,00002.094727,00001.831055,00001.879883,00001.948242,00001.621094,00001.806641,-00000.561523,-00000.039063,-00000.488281,-00000.048828,00000.000000,00000.009766
0000000000949,00000.991211,00000.727539,00001.396484,00000.957031,00002.094727,00001.840820,00001.879883,00001.958008,00001.621094,00001.811523,-00000.561523,-00000.039063,-00000.483398,-00000.048828,00000.004883,00000.004883
0000000000950,00000.991211,00000.727539,00001.396484,00000.957031,00002.094727,00001.835938,00001.879883,00001.953125,00001.621094,00001.811523,-00000.561523,-00000.034180,-00000.478516,-00000.043945,00000.004883,00000.004883
0000000000951,00000.991211,00000.727539,00001.396484,00000.961914,00002.094727,00001.835938,00001.884766,00001.953125,00001.621094,00001.811523,-00000.561523,-00000.034180,-00000.478516,-00000.048828,00000.004883,00000.004883
0000000000952,00000.991211,00000.732422,00001.396484,00000.961914,00002.099609,00001.835938,00001.884766,00001.953125,00001.621094,00001.816406,-00000.556641,-00000.034180,-00000.483398,-00000.043945,00000.004883,00000.004883
0000000000953,00000.991211,00000.727539,00001.401367,00000.957031,00002.099609,00001.835938,00001.879883,00001.953125,00001.621094,00001.816406,-00000.561523,-00000.034180,-00000.478516,-00000.043945,00000.004883,00000.004883
0000000000954,00000.991211,00000.727539,00001.401367,00000.957031,00002.094727,00001.835938,00001.879883,00001.953125,00001.621094,00001.816406,-00000.561523,-00000.034180,-00000.478516,-00000.043945,00000.009766,00000.004883
0000000000955,00000.991211,00000.727539,00001.396484,00000.961914,00002.099609,00001.835938,00001.884766,00001.958008,00001.625977,00001.811523,-00000.566406,-00000.034180,-00000.478516,-00000.043945,00000.004883,00000.004883
0000000000956,00000.996094,00000.727539,00001.401367,00000.981445,00002.099609,00001.840820,00001.884766,00001.962891,00001.621094,00001.816406,-00000.566406,-00000.039063,-00000.478516,-00000.043945,00000.004883,00000.004883
0000000000957,00000.996094,00000.727539,00001.401367,00000.981445,00002.099609,00001.840820,00001.884766,00001.962891,00001.625977,00001.816406,-00000.566406,-00000.039063,-00000.478516,-00000.039063,00000.004883,00000.000000
0000000000958,00000.996094,00000.727539,00001.401367,00000.986328,00002.094727,00001.835938,00001.879883,00001.972656,00001.625977,00001.816406,-00000.571289,-00000.039063,-00000.478516,-00000.043945,00000.004883,00000.000000
0000000000959,00000.996094,00000.727539,00001.401367,00000.986328,00002.099609,00001.831055,00001.884766,00001.972656,00001.630859,00001.816406,-00000.571289,-00000.039063,-00000.483398,-00000.039063,00000.004883,00000.000000
0000000000960,00000.996094,00000.727539,00001.396484,00000.986328,00002.099609,00001.835938,00001.879883,00001.977539,00001.630859,00001.816406,-00000.571289,-00000.039063,-00000.483398,-00000.043945,00000.004883,00000.000000
0000000000961,00000.996094,00000.727539,00001.401367,00000.991211,00002.119141,00001.835938,00001.884766,00001.972656,00001.635742,00001.816406,-00000.571289,-00000.039063,-00000.483398,-00000.039063,00000.004883,00000.000000
0000000000962,00000.991211,00000.727539,00001.396484,00000.986328,00002.119141,00001.835938,00001.884766,00001.972656,00001.630859,00001.816406,-00000.571289,-00000.043945,-00000.478516,-00000.043945,00000.000000,-00000.004883
0000000000963,00000.996094,00000.732422,00001.396484,00000.991211,00002.124023,00001.840820,00001.884766,00001.977539,00001.635742,00001.821289,-00000.576172,-00000.039063,-00000.478516,-00000.043945,00000.000000,-00000.004883
0000000000964,00001.000977,00000.727539,00001.396484,00000.991211,00002.119141,00001.840820,00001.884766,00001.977539,00001.630859,00001.821289,-00000.576172,-00000.043945,-00000.483398,-00000.043945,00000.004883,00000.000000
0000000000965,00000.996094,00000.732422,00001.401367,00000.991211,00002.119141,00001.840820,00001.884766,00001.977539,00001.635742,00001.821289,-00000.576172,-00000.043945,-00000.478516,-00000.043945,00000.004883,00000.000000
0000000000966,00001.000977,00000.727539,00001.406250,00000.996094,00002.124023,00001.845703,00001.884766,00001.992188,00001.635742,00001.826172,-00000.576172,-00000.043945,-00000.483398,-00000.043945,00000.000000,00000.000000
0000000000967,00001.000977,00000.727539,00001.406250,00000.996094,00002.124023,00001.845703,00001.884766,00001.992188,00001.635742,00001.826172,-00000.581055,-00000.043945,-00000.478516,-00000.039063,00000.004883,00000.000000
0000000000968,00001.000977,00000.732422,00001.401367,00001.000977,00002.119141,00001.845703,00001.884766,00001.987305,00001.635742,00001.821289,-00000.581055,-00000.039063,-00000.478516,-00000.039063,00000.004883,00000.000000
0000000000969,00001.000977,00000.732422,00001.401367,00001.000977,00002.124023,00001.845703,00001.889648,00001.923828,00001.640625,00001.826172,-00000.581055,-00000.039063,-00000.478516,-00000.039063,00000.004883,00000.000000
0000000000970,00001.005859,00000.732422,00001.401367,00001.005859,00002.128906,00001.850586,00001.889648,00001.923828,00001.640625,00001.826172,-00000.581055,-00000.039063,-00000.478516,-00000.039063,00000.004883,00000.004883
0000000000971,00001.000977,00000.732422,00001.401367,00001.000977,00002.124023,00001.855469,00001.884766,00001.923828,00001.640625,00001.826172,-00000.581055,-00000.043945,-00000.478516,-00000.039063,00000.004883,00000.000000
0000000000972,00001.000977,00000.732422,00001.401367,00001.000977,00002.124023,00001.845703,00001.884766,00001.928711,00001.635742,00001.831055,-00000.581055,-00000.043945,-00000.478516,-00000.039063,00000.004883,00000.000000
0000000000973,00001.005859,00000.727539,00001.401367,00001.005859,00002.124023,00001.850586,00001.884766,00001.923828,00001.640625,00001.826172,-00000.585938,-00000.039063,-00000.478516,-00000.043945,00000.004883,00000.000000
0000000000974,00001.000977,00000.732422,00001.401367,00001.000977,00002.124023,00001.850586,00001.884766,00001.977539,00001.635742,00001.821289,-00000.585938,-00000.043945,-00000.483398,-00000.043945,00000.004883,00000.000000
0000000000975,00001.000977,00000.732422,00001.396484,00001.000977,00002.124023,00001.845703,00001.884766,00001.977539,00001.635742,00001.826172,-00000.581055,-00000.043945,-00000.483398,-00000.043945,00000.004883,00000.000000
0000000000976,00000.996094,00000.727539,00001.396484,00000.996094,00002.119141,00001.835938,00001.884766,00001.962891,00001.625977,00001.821289,-00000.581055,-00000.043945,-00000.483398,-00000.043945,00000.004883,00000.004883
0000000000977,00000.996094,00000.727539,00001.396484,00000.991211,00002.099609,00001.835938,00001.879883,00001.953125,00001.621094,00001.826172,-00000.585938,-00000.043945,-00000.483398,-00000.043945,00000.004883,00000.004883
0000000000978,00000.996094,00000.727539,00001.401367,00000.986328,00002.099609,00001.831055,00001.884766,00001.953125,00001.625977,00001.826172,-00000.585938,-00000.043945,-00000.488281,-00000.043945,00000.004883,00000.000000
0000000000979,00000.991211,00000.727539,00001.396484,00000.986328,00002.099609,00001.826172,00001.884766,00001.953125,00001.621094,00001.826172,-00000.585938,-00000.043945,-00000.488281,-00000.048828,00000.000000,00000.000000
0000000000980,00000.991211,00000.727539,00001.396484,00000.986328,00002.099609,00001.831055,00001.884766,00001.948242,00001.621094,00001.821289,-00000.585938,-00000.043945,-00000.488281,-00000.048828,00000.000000,00000.000000
0000000000981,00000.991211,00000.727539,00001.396484,00000.981445,00002.094727,00001.831055,00001.879883,00001.953125,00001.616211,00001.826172,-00000.581055,-00000.043945,-00000.488281,-00000.048828,-00000.004883,00000.000000
0000000000982,00000.996094,00000.727539,00001.396484,00000.986328,00002.099609,00001.831055,00001.884766,00001.953125,00001.616211,00001.826172,-00000.581055,-00000.043945,-00000.488281,-00000.048828,00000.000000,00000.000000
0000000000983,00000.991211,00000.727539,00001.396484,00000.986328,00002.099609,00001.826172,00001.884766,00001.953125,00001.621094,00001.821289,-00000.581055,-00000.043945,-00000.488281,-00000.048828,-00000.004883,00000.000000
0000000000984,00000.986328,00000.727539,00001.396484,00000.986328,00002.094727,00001.826172,00001.884766,00001.948242,00001.621094,00001.821289,-00000.581055,-00000.043945,-00000.488281,-00000.048828,-00000.004883,00000.000000
0000000000985,00000.991211,00000.727539,00001.396484,00000.986328,00002.094727,00001.831055,00001.879883,00001.953125,00001.616211,00001.826172,-00000.581055,-00000.043945,-00000.488281,-00000.048828,-00000.004883,00000.000000
0000000000986,00000.991211,00000.727539,00001.396484,00000.986328,00002.099609,00001.831055,00001.879883,00001.953125,00001.616211,00001.826172,-00000.576172,-00000.043945,-00000.488281,-00000.048828,-00000.004883,00000.000000
0000000000987,00000.991211,00000.727539,00001.391602,00000.986328,00002.094727,00001.831055,00001.884766,00001.953125,00001.621094,00001.821289,-00000.571289,-00000.043945,-00000.488281,-00000.048828,-00000.004883,00000.000000
0000000000988,00000.991211,00000.727539,00001.396484,00000.986328,00002.094727,00001.831055,00001.884766,00001.953125,00001.621094,00001.826172,-00000.571289,-00000.043945,-00000.488281,-00000.053711,-00000.004883,00000.000000
0000000000989,00000.991211,00000.727539,00001.396484,00000.986328,00002.099609,00001.831055,00001.884766,00001.953125,00001.621094,00001.826172,-00000.566406,-00000.043945,-00000.488281,-00000.053711,-00000.004883,00000.000000
0000000000990,00000.991211,00000.727539,00001.396484,00000.986328,00002.099609,00001.831055,00001.884766,00001.953125,00001.625977,00001.821289,-00000.566406,-00000.039063,-00000.488281,-00000.053711,-00000.009766,00000.000000
0000000000991,00000.986328,00000.727539,00001.391602,00000.981445,00002.099609,00001.826172,00001.884766,00001.953125,00001.621094,00001.826172,-00000.561523,-00000.039063,-00000.488281,-00000.053711,-00000.009766,00000.000000
0000000000992,00000.991211,00000.727539,00001.396484,00000.986328,00002.094727,00001.826172,00001.884766,00001.953125,00001.621094,00001.821289,-00000.561523,-00000.039063,-00000.493164,-00000.053711,-00000.009766,-00000.004883
0000000000993,00000.991211,00000.732422,00001.396484,00000.986328,00002.099609,00001.831055,00001.889648,00001.958008,00001.621094,00001.821289,-00000.561523,-00000.039063,-00000.488281,-00000.053711,-00000.009766,00000.000000
0000000000994,00000.991211,00000.727539,00001.396484,00000.986328,00002.094727,00001.831055,00001.884766,00001.958008,00001.621094,00001.821289,-00000.561523,-00000.039063,-00000.493164,-00000.058594,-00000.009766,00000.000000
0000000000995,00000.991211,00000.727539,00001.401367,00000.981445,00002.099609,00001.831055,00001.884766,00001.958008,00001.621094,00001.821289,-00000.561523,-00000.039063,-00000.493164,-00000.058594,-00000.014648,00000.000000
0000000000996,00000.996094,00000.727539,00001.396484,00000.986328,00002.099609,00001.835938,00001.884766,00001.958008,00001.621094,00001.826172,-00000.561523,-00000.039063,-00000.493164,-00000.058594,-00000.009766,00000.000000
0000000000997,00000.996094,00000.727539,00001.396484,00000.986328,00002.099609,00001.831055,00001.884766,00001.962891,00001.621094,00001.821289,-00000.566406,-00000.039063,-00000.493164,-00000.063477,-00000.014648,00000.000000
0000000000998,00000.991211,00000.732422,00001.396484,00000.986328,00002.099609,00001.826172,00001.884766,00001.962891,00001.625977,00001.821289,-00000.561523,-00000.039063,-00000.493164,-00000.063477,-00000.014648,00000.000000
0000000000999,00000.996094,00000.727539,00001.396484,00000.986328,00002.099609,00001.831055,00001.884766,00001.972656,00001.625977,00001.821289,-00000.561523,-00000.039063,-00000.493164,-00000.063477,-00000.014648,00000.000000
0000000001000,00000.996094,00000.727539,00001.396484,00000.991211,00002.099609,00001.840820,00001.884766,00001.972656,00001.630859,00001.821289,-00000.561523,-00000.043945,-00000.493164,-00000.063477,-00000.014648,00000.000000
0000000001001,00000.996094,00000.732422,00001.396484,00000.996094,00002.124023,00001.840820,00001.884766,00001.972656,00001.630859,00001.821289,-00000.566406,-00000.039063,-00000.498047,-00000.063477,-00000.014648,00000.000000
0000000001002,00000.996094,00000.732422,00001.401367,00000.986328,00002.124023,00001.840820,00001.884766,00001.977539,00001.635742,00001.826172,-00000.566406,-00000.043945,-00000.498047,-00000.063477,-00000.019531,00000.000000
0000000001003,00000.996094,00000.727539,00001.401367,00000.986328,00002.119141,00001.840820,00001.884766,00001.977539,00001.630859,00001.826172,-00000.566406,-00000.039063,-00000.498047,-00000.063477,-00000.019531,00000.000000
0000000001004,00000.996094,00000.732422,00001.401367,00000.991211,00002.124023,00001.840820,00001.884766,00001.977539,00001.630859,00001.826172,-00000.566406,-00000.039063,-00000.498047,-00000.063477,-00000.019531,-00000.004883
0000000001005,00001.000977,00000.727539,00001.396484,00000.991211,00002.119141,00001.845703,00001.884766,00001.977539,00001.630859,00001.826172,-00000.566406,-00000.039063,-00000.498047,-00000.063477,-00000.019531,-00000.004883
0000000001006,00001.000977,00000.732422,00001.401367,00000.996094,00002.119141,00001.850586,00001.884766,00001.977539,00001.635742,00001.821289,-00000.566406,-00000.039063,-00000.498047,-00000.063477,-00000.019531,00000.000000
0000000001007,00001.000977,00000.727539,00001.401367,00000.996094,00002.119141,00001.845703,00001.884766,00001.977539,00001.635742,00001.826172,-00000.566406,-00000.039063,-00000.498047,-00000.063477,-00000.019531,00000.000000
0000000001008,00001.000977,00000.732422,00001.396484,00000.996094,00002.124023,00001.845703,00001.889648,00001.918945,00001.640625,00001.826172,-00000.566406,-00000.043945,-00000.498047,-00000.068359,-00000.019531,00000.000000
0000000001009,00001.000977,00000.732422,00001.401367,00000.996094,00002.124023,00001.845703,00001.889648,00001.918945,00001.635742,00001.826172,-00000.566406,-00000.043945,-00000.498047,-00000.063477,-00000.014648,00000.000000
0000000001010,00001.000977,00000.737305,00001.401367,00000.996094,00002.124023,00001.845703,00001.889648,00001.918945,00001.640625,00001.826172,-00000.561523,-00000.043945,-00000.498047,-00000.068359,-00000.019531,-00000.004883
0000000001011,00001.000977,00000.732422,00001.401367,00001.000977,00002.124023,00001.850586,00001.884766,00001.923828,00001.640625,00001.826172,-00000.566406,-00000.043945,-00000.498047,-00000.063477,-00000.019531,-00000.004883
0000000001012,00001.000977,00000.732422,00001.401367,00001.000977,00002.124023,00001.850586,00001.889648,00001.918945,00001.645508,00001.826172,-00000.566406,-00000.043945,-00000.498047,-00000.063477,-00000.019531,00000.000000
0000000001013,00001.005859,00000.732422,00001.401367,00001.000977,00002.124023,00001.850586,00001.884766,00001.928711,00001.645508,00001.826172,-00000.566406,-00000.043945,-00000.498047,-00000.063477,-00000.014648,00000.000000
0000000001014,00001.005859,00000.732422,00001.401367,00001.005859,00002.119141,00001.850586,00001.884766,00001.938477,00001.645508,00001.826172,-00000.566406,-00000.039063,-00000.498047,-00000.063477,-00000.014648,00000.000000
0000000001015,00001.005859,00000.732422,00001.401367,00001.005859,00002.128906,00001.850586,00001.889648,00001.948242,00001.650391,00001.826172,-00000.561523,-00000.043945,-00000.498047,-00000.063477,-00000.014648,00000.000000
0000000001016,00001.005859,00000.737305,00001.406250,00001.005859,00002.128906,00001.845703,00001.889648,00001.933594,00001.655273,00001.826172,-00000.561523,-00000.043945,-00000.498047,-00000.063477,-00000.014648,00000.000000
0000000001017,00001.010742,00000.732422,00001.406250,00001.005859,00002.128906,00001.826172,00001.889648,00001.938477,00001.650391,00001.831055,-00000.561523,-00000.043945,-00000.498047,-00000.063477,-00000.009766,00000.000000
0000000001018,00001.010742,00000.737305,00001.406250,00001.005859,00002.128906,00001.821289,00001.889648,00001.953125,00001.650391,00001.831055,-00000.561523,-00000.043945,-00000.498047,-00000.063477,-00000.009766,-00000.004883
0000000001019,00001.015625,00000.737305,00001.401367,00001.010742,00002.128906,00001.821289,00001.889648,00001.958008,00001.650391,00001.831055,-00000.561523,-00000.043945,-00000.493164,-00000.063477,-00000.009766,-00000.004883
0000000001020,00001.015625,00000.737305,00001.406250,00001.010742,00002.124023,00001.821289,00001.889648,00001.938477,00001.655273,00001.826172,-00000.561523,-00000.043945,-00000.493164,-00000.063477,-00000.009766,-00000.004883
0000000001021,00001.005859,00000.732422,00001.401367,00001.000977,00002.128906,00001.845703,00001.889648,00001.928711,00001.650391,00001.826172,-00000.561523,-00000.043945,-00000.493164,-00000.063477,-00000.009766,-00000.004883
0000000001022,00001.005859,00000.732422,00001.401367,00001.000977,00002.128906,00001.850586,00001.889648,00001.923828,00001.635742,00001.826172,-00000.556641,-00000.043945,-00000.493164,-00000.063477,-00000.014648,-00000.004883
0000000001023,00001.005859,00000.732422,00001.401367,00001.000977,00002.124023,00001.850586,00001.884766,00001.958008,00001.635742,00001.826172,-00000.556641,-00000.039063,-00000.493164,-00000.058594,-00000.014648,-00000.004883
0000000001024,00001.005859,00000.732422,00001.396484,00000.991211,00002.124023,00001.835938,00001.884766,00001.982422,00001.625977,00001.821289,-00000.556641,-00000.034180,-00000.488281,-00000.058594,-00000.014648,-00000.004883
0000000001025,00001.000977,00000.732422,00001.396484,00000.991211,00002.114258,00001.831055,00001.884766,00001.977539,00001.625977,00001.821289,-00000.556641,-00000.039063,-00000.488281,-00000.053711,-00000.009766,-00000.004883
0000000001026,00001.000977,00000.727539,00001.401367,00000.986328,00002.099609,00001.831055,00001.884766,00001.977539,00001.625977,00001.821289,-00000.556641,-00000.034180,-00000.483398,-00000.053711,-00000.009766,-00000.009766
0000000001027,00001.005859,00000.727539,00001.401367,00000.986328,00002.094727,00001.835938,00001.879883,00001.967773,00001.625977,00001.821289,-00000.551758,-00000.034180,-00000.483398,-00000.053711,-00000.009766,-00000.009766
0000000001028,00001.000977,00000.727539,00001.396484,00000.986328,00002.099609,00001.840820,00001.884766,00001.958008,00001.625977,00001.821289,-00000.551758,-00000.034180,-00000.483398,-00000.048828,-00000.009766,-00000.009766
0000000001029,00000.996094,00000.727539,00001.401367,00000.966797,00002.099609,00001.840820,00001.884766,00001.962891,00001.625977,00001.826172,-00000.546875,-00000.034180,-00000.478516,-00000.048828,-00000.009766,-00000.004883
0000000001030,00000.996094,00000.727539,00001.396484,00000.966797,00002.094727,00001.835938,00001.884766,00001.953125,00001.625977,00001.816406,-00000.546875,-00000.029297,-00000.478516,-00000.043945,-00000.009766,-00000.004883
0000000001031,00000.996094,00000.722656,00001.401367,00000.961914,00002.094727,00001.840820,00001.879883,00001.958008,00001.621094,00001.821289,-00000.541992,-00000.029297,-00000.478516,-00000.043945,-00000.009766,-00000.004883
0000000001032,00000.996094,00000.722656,00001.401367,00000.961914,00002.094727,00001.835938,00001.879883,00001.958008,00001.621094,00001.826172,-00000.537109,-00000.029297,-00000.478516,-00000.043945,-00000.004883,-00000.004883
0000000001033,00000.996094,00000.698242,00001.401367,00000.961914,00002.099609,00001.840820,00001.884766,00001.958008,00001.621094,00001.826172,-00000.527344,-00000.024414,-00000.473633,-00000.053711,-00000.004883,-00000.009766
0000000001034,00000.996094,00000.693359,00001.406250,00000.961914,00002.099609,00001.835938,00001.879883,00001.953125,00001.621094,00001.826172,-00000.517578,-00000.019531,-00000.473633,-00000.043945,-00000.004883,-00000.009766
0000000001035,00001.000977,00000.693359,00001.401367,00000.966797,00002.094727,00001.840820,00001.884766,00001.953125,00001.621094,00001.826172,-00000.512695,-00000.014648,-00000.468750,-00000.043945,00000.000000,-00000.009766
0000000001036,00001.000977,00000.683594,00001.406250,00000.981445,00002.089844,00001.840820,00001.879883,00001.958008,00001.621094,00001.826172,-00000.507813,-00000.014648,-00000.468750,-00000.043945,00000.000000,-00000.009766
0000000001037,00001.000977,00000.683594,00001.416016,00000.981445,00002.094727,00001.835938,00001.879883,00001.958008,00001.621094,00001.831055,-00000.502930,-00000.009766,-00000.468750,-00000.043945,00000.000000,-00000.009766
0000000001038,00000.996094,00000.678711,00001.411133,00000.986328,00002.094727,00001.835938,00001.884766,00001.953125,00001.625977,00001.826172,-00000.498047,-00000.004883,-00000.463867,-00000.043945,00000.004883,-00000.009766
0000000001039,00001.000977,00000.673828,00001.416016,00000.981445,00002.094727,00001.835938,00001.884766,00001.958008,00001.621094,00001.831055,-00000.498047,-00000.004883,-00000.463867,-00000.039063,00000.004883,-00000.014648
0000000001040,00001.000977,00000.644531,00001.420898,00000.981445,00002.094727,00001.835938,00001.884766,00001.958008,00001.630859,00001.831055,-00000.488281,00000.000000,-00000.458984,-00000.039063,00000.004883,-00000.009766
0000000001041,00001.000977,00000.634766,00001.420898,00000.986328,00002.094727,00001.835938,00001.884766,00001.958008,00001.630859,00001.831055,-00000.483398,00000.004883,-00000.454102,-00000.034180,00000.009766,-00000.014648
0000000001042,00001.000977,00000.629883,00001.425781,00000.986328,00002.099609,00001.835938,00001.884766,00001.962891,00001.630859,00001.835938,-00000.478516,00000.009766,-00000.454102,-00000.034180,00000.009766,-00000.014648
0000000001043,00001.000977,00000.620117,00001.430664,00000.986328,00002.094727,00001.840820,00001.884766,00001.967773,00001.630859,00001.835938,-00000.473633,00000.009766,-00000.449219,-00000.034180,00000.009766,-00000.014648
0000000001044,00001.000977,00000.620117,00001.435547,00000.986328,00002.094727,00001.831055,00001.884766,00001.967773,00001.630859,00001.831055,-00000.468750,00000.014648,-00000.449219,-00000.029297,00000.009766,-00000.014648
0000000001045,00001.000977,00000.615234,00001.440430,00000.986328,00002.094727,00001.835938,00001.884766,00001.977539,00001.630859,00001.835938,-00000.463867,00000.014648,-00000.449219,-00000.029297,00000.009766,-00000.014648
0000000001046,00001.000977,00000.615234,00001.440430,00000.991211,00002.094727,00001.840820,00001.884766,00001.977539,00001.635742,00001.831055,-00000.458984,00000.014648,-00000.444336,-00000.024414,00000.009766,-00000.014648
0000000001047,00001.000977,00000.615234,00001.445313,00000.991211,00002.089844,00001.835938,00001.884766,00001.977539,00001.630859,00001.831055,-00000.454102,00000.014648,-00000.444336,-00000.024414,00000.004883,-00000.014648
0000000001048,00000.996094,00000.615234,00001.445313,00000.991211,00002.094727,00001.835938,00001.889648,00001.977539,00001.635742,00001.835938,-00000.444336,00000.014648,-00000.444336,-00000.019531,00000.004883,-00000.014648
0000000001049,00000.996094,00000.615234,00001.455078,00000.991211,00002.094727,00001.831055,00001.884766,00001.977539,00001.630859,00001.840820,-00000.429688,00000.019531,-00000.444336,-00000.014648,00000.004883,-00000.014648
0000000001050,00000.991211,00000.615234,00001.469727,00000.996094,00002.094727,00001.831055,00001.889648,00001.972656,00001.635742,00001.840820,-00000.419922,00000.019531,-00000.439453,-00000.014648,00000.004883,-00000.014648
0000000001051,00000.996094,00000.610352,00001.474609,00001.000977,00002.094727,00001.831055,00001.884766,00001.977539,00001.630859,00001.840820,-00000.419922,00000.019531,-00000.439453,-00000.009766,00000.004883,-00000.014648
0000000001052,00000.996094,00000.610352,00001.479492,00001.005859,00002.094727,00001.835938,00001.884766,00001.914063,00001.635742,00001.840820,-00000.410156,00000.014648,-00000.444336,-00000.004883,00000.009766,-00000.014648
0000000001053,00000.996094,00000.610352,00001.474609,00001.005859,00002.089844,00001.835938,00001.884766,00001.914063,00001.640625,00001.835938,-00000.410156,00000.014648,-00000.439453,-00000.004883,00000.004883,-00000.014648
0000000001054,00000.996094,00000.610352,00001.484375,00001.015625,00002.094727,00001.835938,00001.889648,00001.923828,00001.640625,00001.840820,-00000.405273,00000.014648,-00000.439453,00000.000000,00000.009766,-00000.014648
0000000001055,00000.991211,00000.610352,00001.489258,00001.015625,00002.094727,00001.831055,00001.889648,00001.918945,00001.645508,00001.840820,-00000.400391,00000.014648,-00000.439453,00000.004883,00000.014648,-00000.014648
0000000001056,00000.991211,00000.610352,00001.489258,00001.010742,00002.094727,00001.831055,00001.884766,00001.918945,00001.635742,00001.840820,-00000.395508,00000.014648,-00000.439453,00000.004883,00000.014648,-00000.019531
0000000001057,00000.991211,00000.610352,00001.499023,00001.015625,00002.099609,00001.831055,00001.884766,00001.918945,00001.640625,00001.840820,-00000.390625,00000.019531,-00000.439453,00000.004883,00000.014648,-00000.019531
0000000001058,00000.991211,00000.610352,00001.499023,00001.015625,00002.094727,00001.831055,00001.884766,00001.918945,00001.640625,00001.840820,-00000.385742,00000.019531,-00000.439453,00000.000000,00000.009766,-00000.019531
0000000001059,00000.986328,00000.605469,00001.499023,00001.015625,00002.094727,00001.831055,00001.884766,00001.918945,00001.635742,00001.835938,-00000.380859,00000.019531,-00000.439453,00000.000000,00000.014648,-00000.019531
0000000001060,00000.981445,00000.605469,00001.499023,00001.015625,00002.094727,00001.826172,00001.889648,00001.918945,00001.640625,00001.840820,-00000.380859,00000.024414,-00000.449219,00000.000000,00000.014648,-00000.019531
0000000001061,00000.981445,00000.605469,00001.508789,00001.015625,00002.099609,00001.831055,00001.884766,00001.923828,00001.640625,00001.840820,-00000.380859,00000.024414,-00000.439453,00000.000000,00000.014648,-00000.014648
0000000001062,00000.976563,00000.600586,00001.508789,00001.015625,00002.099609,00001.831055,00001.884766,00001.918945,00001.640625,00001.845703,-00000.380859,00000.024414,-00000.444336,00000.004883,00000.014648,-00000.019531
0000000001063,00000.976563,00000.605469,00001.508789,00001.020508,00002.094727,00001.826172,00001.889648,00001.914063,00001.640625,00001.840820,-00000.375977,00000.029297,-00000.444336,00000.004883,00000.014648,-00000.019531
0000000001064,00000.981445,00000.600586,00001.518555,00001.025391,00002.094727,00001.835938,00001.889648,00001.923828,00001.645508,00001.845703,-00000.375977,00000.029297,-00000.444336,00000.009766,00000.014648,-00000.019531
0000000001065,00000.976563,00000.600586,00001.523438,00001.025391,00002.099609,00001.831055,00001.889648,00001.923828,00001.645508,00001.845703,-00000.371094,00000.029297,-00000.449219,00000.009766,00000.014648,-00000.014648
0000000001066,00000.976563,00000.600586,00001.528320,00001.030273,00002.099609,00001.831055,00001.889648,00001.928711,00001.650391,00001.850586,-00000.375977,00000.034180,-00000.454102,00000.009766,00000.009766,-00000.014648
0000000001067,00000.976563,00000.600586,00001.528320,00001.035156,00002.094727,00001.831055,00001.889648,00001.938477,00001.650391,00001.845703,-00000.375977,00000.034180,-00000.449219,00000.014648,00000.014648,-00000.014648
0000000001068,00000.976563,00000.600586,00001.528320,00001.030273,00002.099609,00001.831055,00001.889648,00001.938477,00001.645508,00001.850586,-00000.375977,00000.034180,-00000.444336,00000.019531,00000.014648,-00000.014648
0000000001069,00000.971680,00000.600586,00001.528320,00001.030273,00002.099609,00001.831055,00001.889648,00001.923828,00001.645508,00001.850586,-00000.375977,00000.034180,-00000.454102,00000.019531,00000.009766,-00000.009766
0000000001070,00000.966797,00000.595703,00001.508789,00001.025391,00002.089844,00001.826172,00001.889648,00001.977539,00001.625977,00001.845703,-00000.380859,00000.039063,-00000.449219,00000.019531,00000.004883,-00000.009766
0000000001071,00000.947266,00000.600586,00001.499023,00001.020508,00002.094727,00001.816406,00001.889648,00001.958008,00001.625977,00001.845703,-00000.385742,00000.034180,-00000.454102,00000.024414,00000.009766,-00000.009766
0000000001072,00000.942383,00000.595703,00001.494141,00001.015625,00002.089844,00001.811523,00001.884766,00001.948242,00001.625977,00001.840820,-00000.390625,00000.029297,-00000.454102,00000.029297,00000.009766,-00000.009766
0000000001073,00000.942383,00000.595703,00001.494141,00001.015625,00002.089844,00001.816406,00001.884766,00001.943359,00001.621094,00001.840820,-00000.395508,00000.029297,-00000.454102,00000.029297,00000.009766,-00000.009766
0000000001074,00000.937500,00000.595703,00001.494141,00001.005859,00002.089844,00001.816406,00001.879883,00001.923828,00001.601563,00001.835938,-00000.395508,00000.029297,-00000.449219,00000.034180,00000.009766,-00000.009766
0000000001075,00000.937500,00000.595703,00001.484375,00001.005859,00002.089844,00001.816406,00001.879883,00001.914063,00001.601563,00001.835938,-00000.400391,00000.029297,-00000.449219,00000.034180,00000.009766,-00000.009766
0000000001076,00000.932617,00000.595703,00001.479492,00001.000977,00002.089844,00001.811523,00001.879883,00001.904297,00001.601563,00001.835938,-00000.400391,00000.029297,-00000.449219,00000.034180,00000.009766,-00000.009766
0000000001077,00000.927734,00000.595703,00001.469727,00001.005859,00002.089844,00001.806641,00001.879883,00001.899414,00001.611328,00001.826172,-00000.400391,00000.029297,-00000.449219,00000.034180,00000.009766,-00000.009766
0000000001078,00000.932617,00000.590820,00001.469727,00001.000977,00002.084961,00001.811523,00001.879883,00001.899414,00001.606445,00001.826172,-00000.400391,00000.024414,-00000.449219,00000.034180,00000.009766,-00000.009766
0000000001079,00000.932617,00000.590820,00001.464844,00001.000977,00002.084961,00001.811523,00001.879883,00001.904297,00001.601563,00001.826172,-00000.395508,00000.024414,-00000.454102,00000.034180,00000.009766,-00000.009766
0000000001080,00000.927734,00000.590820,00001.464844,00000.996094,00002.084961,00001.806641,00001.879883,00001.899414,00001.596680,00001.831055,-00000.400391,00000.019531,-00000.454102,00000.034180,00000.009766,-00000.009766
0000000001081,00000.932617,00000.590820,00001.464844,00000.996094,00002.089844,00001.811523,00001.879883,00001.899414,00001.596680,00001.831055,-00000.405273,00000.019531,-00000.449219,00000.034180,00000.004883,-00000.009766
0000000001082,00000.927734,00000.590820,00001.459961,00000.996094,00002.089844,00001.806641,00001.879883,00001.899414,00001.596680,00001.831055,-00000.410156,00000.019531,-00000.454102,00000.034180,00000.004883,-00000.009766
0000000001083,00000.927734,00000.590820,00001.459961,00000.996094,00002.089844,00001.806641,00001.879883,00001.899414,00001.601563,00001.835938,-00000.415039,00000.019531,-00000.454102,00000.034180,00000.004883,-00000.009766
0000000001084,00000.927734,00000.590820,00001.459961,00001.000977,00002.089844,00001.811523,00001.884766,00001.899414,00001.601563,00001.835938,-00000.415039,00000.019531,-00000.458984,00000.034180,00000.004883,-00000.009766
0000000001085,00000.932617,00000.590820,00001.459961,00001.000977,00002.089844,00001.811523,00001.879883,00001.899414,00001.601563,00001.831055,-00000.415039,00000.014648,-00000.458984,00000.034180,00000.004883,-00000.009766
0000000001086,00000.927734,00000.590820,00001.464844,00000.996094,00002.089844,00001.811523,00001.879883,00001.904297,00001.596680,00001.835938,-00000.415039,00000.014648,-00000.458984,00000.029297,00000.004883,-00000.009766
0000000001087,00000.927734,00000.590820,00001.459961,00000.996094,00002.089844,00001.811523,00001.884766,00001.904297,00001.596680,00001.835938,-00000.419922,00000.014648,-00000.458984,00000.034180,00000.004883,-00000.009766
0000000001088,00000.932617,00000.590820,00001.459961,00000.996094,00002.084961,00001.811523,00001.879883,00001.904297,00001.601563,00001.831055,-00000.419922,00000.014648,-00000.458984,00000.034180,00000.004883,-00000.009766
0000000001089,00000.932617,00000.590820,00001.459961,00000.996094,00002.089844,00001.811523,00001.879883,00001.904297,00001.601563,00001.831055,-00000.424805,00000.014648,-00000.458984,00000.034180,00000.004883,-00000.009766
0000000001090,00000.932617,00000.590820,00001.455078,00001.000977,00002.089844,00001.811523,00001.879883,00001.899414,00001.611328,00001.831055,-00000.424805,00000.014648,-00000.458984,00000.029297,00000.004883,-00000.009766
0000000001091,00000.932617,00000.585938,00001.455078,00000.996094,00002.084961,00001.811523,00001.879883,00001.899414,00001.611328,00001.831055,-00000.424805,00000.009766,-00000.463867,00000.034180,00000.004883,-00000.014648
0000000001092,00000.932617,00000.585938,00001.459961,00000.996094,00002.084961,00001.816406,00001.879883,00001.899414,00001.611328,00001.835938,-00000.424805,00000.009766,-00000.463867,00000.029297,00000.004883,-00000.009766
0000000001093,00000.932617,00000.585938,00001.459961,00000.996094,00002.089844,00001.816406,00001.879883,00001.904297,00001.616211,00001.835938,-00000.424805,00000.009766,-00000.463867,00000.024414,00000.004883,-00000.009766
0000000001094,00000.937500,00000.590820,00001.459961,00000.996094,00002.089844,00001.811523,00001.879883,00001.899414,00001.616211,00001.835938,-00000.424805,00000.009766,-00000.463867,00000.024414,00000.004883,-00000.009766
0000000001095,00000.937500,00000.590820,00001.459961,00000.996094,00002.089844,00001.816406,00001.879883,00001.904297,00001.616211,00001.835938,-00000.424805,00000.009766,-00000.468750,00000.019531,00000.000000,-00000.009766
0000000001096,00000.942383,00000.590820,00001.459961,00001.000977,00002.089844,00001.821289,00001.879883,00001.904297,00001.616211,00001.835938,-00000.429688,00000.004883,-00000.473633,00000.019531,00000.000000,-00000.009766
0000000001097,00000.937500,00000.595703,00001.459961,00000.996094,00002.089844,00001.816406,00001.884766,00001.909180,00001.616211,00001.845703,-00000.429688,00000.004883,-00000.473633,00000.014648,00000.004883,-00000.014648
0000000001098,00000.942383,00000.595703,00001.459961,00000.996094,00002.089844,00001.816406,00001.879883,00001.962891,00001.616211,00001.840820,-00000.429688,00000.000000,-00000.478516,00000.014648,00000.000000,-00000.014648
0000000001099,00000.942383,00000.595703,00001.455078,00001.000977,00002.089844,00001.811523,00001.884766,00001.962891,00001.621094,00001.840820,-00000.439453,-00000.004883,-00000.483398,00000.009766,00000.000000,-00000.014648
0000000001100,00000.942383,00000.595703,00001.455078,00001.000977,00002.089844,00001.826172,00001.879883,00001.967773,00001.621094,00001.835938,-00000.444336,-00000.004883,-00000.483398,00000.009766,00000.000000,-00000.009766
0000000001101,00000.942383,00000.595703,00001.455078,00001.000977,00002.089844,00001.826172,00001.879883,00001.962891,00001.621094,00001.840820,-00000.444336,-00000.004883,-00000.483398,00000.009766,00000.004883,-00000.009766
0000000001102,00000.947266,00000.600586,00001.459961,00001.005859,00002.094727,00001.826172,00001.884766,00001.967773,00001.625977,00001.845703,-00000.444336,-00000.009766,-00000.483398,00000.004883,00000.004883,-00000.014648
0000000001103,00000.947266,00000.600586,00001.459961,00001.005859,00002.094727,00001.826172,00001.884766,00001.967773,00001.630859,00001.845703,-00000.449219,-00000.009766,-00000.483398,00000.004883,00000.000000,-00000.014648
0000000001104,00000.942383,00000.605469,00001.455078,00001.005859,00002.094727,00001.826172,00001.884766,00001.962891,00001.625977,00001.840820,-00000.449219,-00000.009766,-00000.483398,00000.004883,00000.000000,-00000.014648
0000000001105,00000.947266,00000.605469,00001.459961,00001.010742,00002.094727,00001.831055,00001.884766,00001.967773,00001.630859,00001.845703,-00000.454102,-00000.009766,-00000.483398,00000.004883,00000.004883,-00000.014648
0000000001106,00000.947266,00000.605469,00001.459961,00001.010742,00002.099609,00001.831055,00001.884766,00001.972656,00001.630859,00001.845703,-00000.458984,-00000.009766,-00000.483398,00000.009766,00000.000000,-00000.014648
0000000001107,00000.952148,00000.610352,00001.459961,00001.010742,00002.094727,00001.831055,00001.879883,00001.972656,00001.625977,00001.840820,-00000.458984,-00000.009766,-00000.483398,00000.009766,00000.004883,-00000.014648
0000000001108,00000.947266,00000.615234,00001.455078,00001.015625,00002.099609,00001.831055,00001.884766,00001.972656,00001.635742,00001.845703,-00000.458984,-00000.009766,-00000.483398,00000.009766,00000.004883,-00000.014648
0000000001109,00000.952148,00000.625000,00001.455078,00001.015625,00002.099609,00001.831055,00001.889648,00001.972656,00001.635742,00001.845703,-00000.463867,-00000.014648,-00000.483398,00000.004883,00000.004883,-00000.009766
0000000001110,00000.961914,00000.620117,00001.455078,00001.015625,00002.099609,00001.831055,00001.889648,00001.972656,00001.640625,00001.845703,-00000.463867,-00000.014648,-00000.483398,00000.004883,00000.000000,-00000.014648
0000000001111,00000.971680,00000.625000,00001.459961,00001.015625,00002.099609,00001.835938,00001.884766,00001.982422,00001.635742,00001.850586,-00000.463867,-00000.014648,-00000.478516,00000.004883,00000.004883,-00000.009766
0000000001112,00000.971680,00000.629883,00001.455078,00001.015625,00002.119141,00001.840820,00001.884766,00001.982422,00001.640625,00001.850586,-00000.468750,-00000.009766,-00000.483398,00000.009766,00000.004883,-00000.014648
0000000001113,00000.971680,00000.639648,00001.455078,00001.015625,00002.124023,00001.840820,00001.884766,00001.987305,00001.640625,00001.850586,-00000.468750,-00000.009766,-00000.483398,00000.004883,00000.004883,-00000.014648
0000000001114,00000.976563,00000.649414,00001.455078,00001.025391,00002.119141,00001.845703,00001.889648,00001.997070,00001.650391,00001.855469,-00000.468750,-00000.014648,-00000.478516,00000.009766,00000.004883,-00000.014648
0000000001115,00000.976563,00000.673828,00001.459961,00001.025391,00002.124023,00001.835938,00001.889648,00001.997070,00001.650391,00001.855469,-00000.473633,-00000.014648,-00000.478516,00000.009766,00000.004883,-00000.014648
0000000001116,00000.981445,00000.668945,00001.455078,00001.025391,00002.119141,00001.840820,00001.884766,00001.997070,00001.650391,00001.855469,-00000.473633,-00000.014648,-00000.478516,00000.009766,00000.004883,-00000.009766
0000000001117,00000.976563,00000.668945,00001.455078,00001.025391,00002.119141,00001.840820,00001.884766,00001.997070,00001.650391,00001.855469,-00000.478516,-00000.014648,-00000.478516,00000.009766,00000.004883,-00000.014648
0000000001118,00000.976563,00000.668945,00001.450195,00001.020508,00002.119141,00001.835938,00001.884766,00001.928711,00001.640625,00001.850586,-00000.478516,-00000.014648,-00000.478516,00000.009766,00000.004883,-00000.014648
0000000001119,00000.976563,00000.664063,00001.455078,00001.015625,00002.099609,00001.835938,00001.884766,00001.977539,00001.635742,00001.850586,-00000.483398,-00000.014648,-00000.478516,00000.009766,00000.004883,-00000.014648
0000000001120,00000.971680,00000.664063,00001.450195,00001.010742,00002.099609,00001.835938,00001.884766,00001.962891,00001.630859,00001.850586,-00000.488281,-00000.014648,-00000.478516,00000.014648,00000.004883,-00000.014648
0000000001121,00000.971680,00000.664063,00001.445313,00001.010742,00002.099609,00001.831055,00001.884766,00001.953125,00001.625977,00001.850586,-00000.488281,-00000.014648,-00000.478516,00000.014648,00000.004883,-00000.014648
0000000001122,00000.971680,00000.659180,00001.450195,00001.005859,00002.099609,00001.831055,00001.879883,00001.953125,00001.621094,00001.845703,-00000.488281,-00000.014648,-00000.478516,00000.014648,00000.004883,-00000.009766
0000000001123,00000.966797,00000.654297,00001.445313,00001.005859,00002.099609,00001.831055,00001.884766,00001.948242,00001.621094,00001.840820,-00000.488281,-00000.014648,-00000.478516,00000.014648,00000.004883,-00000.014648
0000000001124,00000.966797,00000.649414,00001.445313,00001.005859,00002.089844,00001.835938,00001.884766,00001.948242,00001.621094,00001.845703,-00000.488281,-00000.014648,-00000.478516,00000.009766,00000.004883,-00000.009766
0000000001125,00000.966797,00000.664063,00001.445313,00001.000977,00002.094727,00001.831055,00001.884766,00001.953125,00001.621094,00001.845703,-00000.488281,-00000.014648,-00000.478516,00000.014648,00000.004883,-00000.009766
0000000001126,00000.966797,00000.664063,00001.445313,00001.000977,00002.089844,00001.831055,00001.879883,00001.948242,00001.621094,00001.845703,-00000.488281,-00000.014648,-00000.478516,00000.014648,00000.004883,-00000.014648
0000000001127,00000.952148,00000.664063,00001.445313,00001.000977,00002.094727,00001.831055,00001.879883,00001.943359,00001.621094,00001.840820,-00000.493164,-00000.014648,-00000.478516,00000.009766,00000.004883,-00000.014648
0000000001128,00000.952148,00000.664063,00001.445313,00001.000977,00002.094727,00001.831055,00001.884766,00001.933594,00001.625977,00001.845703,-00000.493164,-00000.014648,-00000.478516,00000.014648,00000.004883,-00000.014648
0000000001129,00000.957031,00000.664063,00001.445313,00000.996094,00002.099609,00001.831055,00001.884766,00001.933594,00001.621094,00001.850586,-00000.498047,-00000.014648,-00000.478516,00000.009766,00000.004883,-00000.014648
0000000001130,00000.952148,00000.664063,00001.440430,00001.000977,00002.089844,00001.831055,00001.879883,00001.933594,00001.621094,00001.845703,-00000.498047,-00000.014648,-00000.483398,00000.014648,00000.004883,-00000.014648
0000000001131,00000.952148,00000.664063,00001.440430,00001.005859,00002.094727,00001.831055,00001.884766,00001.933594,00001.621094,00001.845703,-00000.498047,-00000.019531,-00000.478516,00000.009766,00000.004883,-00000.009766
0000000001132,00000.952148,00000.668945,00001.445313,00001.000977,00002.099609,00001.831055,00001.879883,00001.943359,00001.621094,00001.850586,-00000.498047,-00000.019531,-00000.478516,00000.014648,00000.004883,-00000.009766
0000000001133,00000.952148,00000.673828,00001.440430,00001.000977,00002.089844,00001.835938,00001.884766,00001.962891,00001.625977,00001.845703,-00000.498047,-00000.019531,-00000.478516,00000.014648,00000.004883,-00000.009766
0000000001134,00000.952148,00000.678711,00001.445313,00001.000977,00002.094727,00001.826172,00001.884766,00001.962891,00001.621094,00001.850586,-00000.502930,-00000.014648,-00000.478516,00000.009766,00000.004883,-00000.009766
0000000001135,00000.952148,00000.673828,00001.440430,00001.000977,00002.094727,00001.831055,00001.879883,00001.962891,00001.621094,00001.845703,-00000.502930,-00000.014648,-00000.483398,00000.009766,00000.004883,-00000.009766
0000000001136,00000.947266,00000.678711,00001.440430,00000.996094,00002.094727,00001.826172,00001.884766,00001.958008,00001.621094,00001.845703,-00000.502930,-00000.014648,-00000.478516,00000.014648,00000.004883,-00000.009766
0000000001137,00000.952148,00000.678711,00001.440430,00001.000977,00002.094727,00001.831055,00001.884766,00001.962891,00001.621094,00001.845703,-00000.502930,-00000.014648,-00000.478516,00000.014648,00000.004883,-00000.009766
0000000001138,00000.952148,00000.673828,00001.445313,00001.000977,00002.094727,00001.831055,00001.879883,00001.967773,00001.621094,00001.845703,-00000.502930,-00000.014648,-00000.478516,00000.014648,00000.004883,-00000.009766
0000000001139,00000.952148,00000.673828,00001.445313,00001.000977,00002.094727,00001.831055,00001.879883,00001.967773,00001.616211,00001.850586,-00000.502930,-00000.014648,-00000.483398,00000.014648,00000.004883,-00000.009766
0000000001140,00000.947266,00000.678711,00001.440430,00001.000977,00002.089844,00001.831055,00001.879883,00001.962891,00001.621094,00001.840820,-00000.502930,-00000.014648,-00000.478516,00000.019531,00000.004883,-00000.009766
0000000001141,00000.947266,00000.678711,00001.445313,00000.996094,00002.094727,00001.831055,00001.879883,00001.967773,00001.621094,00001.845703,-00000.502930,-00000.014648,-00000.478516,00000.019531,00000.004883,-00000.009766
0000000001142,00000.947266,00000.678711,00001.445313,00001.000977,00002.094727,00001.831055,00001.884766,00001.962891,00001.621094,00001.840820,-00000.498047,-00000.009766,-00000.478516,00000.019531,00000.004883,-00000.009766
0000000001143,00000.947266,00000.678711,00001.445313,00001.000977,00002.094727,00001.831055,00001.884766,00001.967773,00001.621094,00001.845703,-00000.493164,-00000.009766,-00000.473633,00000.019531,00000.004883,-00000.009766
0000000001144,00000.947266,00000.678711,00001.445313,00001.000977,00002.094727,00001.831055,00001.884766,00001.962891,00001.625977,00001.845703,-00000.493164,-00000.009766,-00000.473633,00000.019531,00000.004883,-00000.009766
0000000001145,00000.952148,00000.678711,00001.445313,00000.996094,00002.089844,00001.831055,00001.879883,00001.967773,00001.621094,00001.850586,-00000.483398,-00000.009766,-00000.473633,00000.019531,00000.009766,-00000.009766
0000000001146,00000.952148,00000.678711,00001.445313,00001.000977,00002.094727,00001.835938,00001.884766,00001.967773,00001.630859,00001.850586,-00000.488281,-00000.009766,-00000.473633,00000.019531,00000.009766,-00000.009766
0000000001147,00000.952148,00000.683594,00001.445313,00001.000977,00002.099609,00001.831055,00001.889648,00001.972656,00001.635742,00001.850586,-00000.488281,-00000.009766,-00000.473633,00000.019531,00000.009766,-00000.009766
0000000001148,00000.952148,00000.678711,00001.445313,00001.000977,00002.094727,00001.831055,00001.879883,00001.972656,00001.630859,00001.850586,-00000.488281,-00000.009766,-00000.473633,00000.019531,00000.009766,-00000.004883
0000000001149,00000.952148,00000.678711,00001.450195,00001.000977,00002.099609,00001.831055,00001.879883,00001.977539,00001.630859,00001.850586,-00000.488281,-00000.009766,-00000.468750,00000.019531,00000.009766,-00000.009766
0000000001150,00000.952148,00000.678711,00001.445313,00001.000977,00002.094727,00001.835938,00001.879883,00001.977539,00001.630859,00001.850586,-00000.488281,-00000.009766,-00000.473633,00000.019531,00000.004883,-00000.009766
0000000001151,00000.952148,00000.683594,00001.445313,00001.005859,00002.094727,00001.831055,00001.884766,00001.972656,00001.635742,00001.850586,-00000.488281,-00000.009766,-00000.473633,00000.019531,00000.009766,-00000.009766
0000000001152,00000.952148,00000.683594,00001.450195,00001.010742,00002.099609,00001.835938,00001.884766,00001.977539,00001.635742,00001.855469,-00000.488281,-00000.014648,-00000.473633,00000.019531,00000.009766,-00000.009766
0000000001153,00000.952148,00000.683594,00001.450195,00001.010742,00002.099609,00001.835938,00001.884766,00001.977539,00001.635742,00001.850586,-00000.493164,-00000.014648,-00000.478516,00000.014648,00000.004883,-00000.009766
0000000001154,00000.952148,00000.683594,00001.450195,00001.010742,00002.099609,00001.835938,00001.884766,00001.977539,00001.635742,00001.855469,-00000.493164,-00000.014648,-00000.478516,00000.014648,00000.004883,-00000.009766
0000000001155,00000.952148,00000.688477,00001.450195,00001.015625,00002.099609,00001.835938,00001.884766,00001.977539,00001.640625,00001.855469,-00000.498047,-00000.014648,-00000.478516,00000.014648,00000.004883,-00000.009766
0000000001156,00000.952148,00000.688477,00001.450195,00001.015625,00002.124023,00001.840820,00001.889648,00001.977539,00001.640625,00001.865234,-00000.498047,-00000.014648,-00000.483398,00000.014648,00000.004883,-00000.009766
0000000001157,00000.966797,00000.688477,00001.450195,00001.015625,00002.114258,00001.845703,00001.879883,00001.977539,00001.640625,00001.860352,-00000.498047,-00000.019531,-00000.483398,00000.009766,00000.000000,-00000.009766
0000000001158,00000.966797,00000.688477,00001.450195,00001.015625,00002.119141,00001.840820,00001.884766,00001.977539,00001.645508,00001.860352,-00000.498047,-00000.014648,-00000.483398,00000.009766,00000.004883,-00000.009766
0000000001159,00000.966797,00000.688477,00001.450195,00001.015625,00002.119141,00001.840820,00001.884766,00001.987305,00001.645508,00001.860352,-00000.498047,-00000.014648,-00000.483398,00000.009766,00000.004883,-00000.009766
0000000001160,00000.971680,00000.688477,00001.455078,00001.015625,00002.119141,00001.840820,00001.884766,00001.992188,00001.645508,00001.865234,-00000.498047,-00000.014648,-00000.478516,00000.009766,00000.000000,-00000.009766
0000000001161,00000.966797,00000.693359,00001.455078,00001.020508,00002.124023,00001.835938,00001.889648,00001.997070,00001.650391,00001.865234,-00000.498047,-00000.014648,-00000.478516,00000.014648,00000.004883,-00000.009766
0000000001162,00000.971680,00000.688477,00001.455078,00001.015625,00002.128906,00001.835938,00001.889648,00002.001953,00001.650391,00001.870117,-00000.498047,-00000.014648,-00000.478516,00000.014648,00000.004883,-00000.009766
0000000001163,00000.971680,00000.688477,00001.455078,00001.020508,00002.124023,00001.835938,00001.884766,00001.997070,00001.650391,00001.865234,-00000.502930,-00000.014648,-00000.478516,00000.014648,00000.004883,-00000.009766
0000000001164,00000.971680,00000.688477,00001.455078,00001.020508,00002.119141,00001.835938,00001.884766,00001.997070,00001.650391,00001.860352,-00000.502930,-00000.014648,-00000.478516,00000.014648,00000.004883,-00000.009766
0000000001165,00000.971680,00000.688477,00001.455078,00001.020508,00002.119141,00001.840820,00001.884766,00001.997070,00001.645508,00001.860352,-00000.502930,-00000.009766,-00000.473633,00000.014648,00000.004883,-00000.009766
0000000001166,00000.971680,00000.688477,00001.450195,00001.020508,00002.124023,00001.831055,00001.889648,00001.987305,00001.650391,00001.860352,-00000.502930,-00000.009766,-00000.473633,00000.019531,00000.009766,-00000.009766
0000000001167,00000.961914,00000.683594,00001.445313,00001.010742,00002.119141,00001.835938,00001.884766,00001.977539,00001.635742,00001.855469,-00000.502930,-00000.009766,-00000.473633,00000.019531,00000.009766,-00000.009766
0000000001168,00000.947266,00000.683594,00001.445313,00001.000977,00002.094727,00001.835938,00001.884766,00001.948242,00001.625977,00001.850586,-00000.502930,-00000.009766,-00000.473633,00000.019531,00000.009766,-00000.009766
0000000001169,00000.947266,00000.678711,00001.445313,00000.996094,00002.099609,00001.831055,00001.879883,00001.953125,00001.621094,00001.850586,-00000.502930,-00000.014648,-00000.473633,00000.019531,00000.009766,-00000.004883
0000000001170,00000.947266,00000.673828,00001.445313,00001.000977,00002.094727,00001.835938,00001.879883,00001.923828,00001.625977,00001.845703,-00000.502930,-00000.009766,-00000.468750,00000.024414,00000.009766,-00000.009766
0000000001171,00000.947266,00000.673828,00001.440430,00000.996094,00002.094727,00001.831055,00001.884766,00001.909180,00001.625977,00001.845703,-00000.507813,-00000.004883,-00000.463867,00000.029297,00000.009766,-00000.009766
0000000001172,00000.947266,00000.668945,00001.440430,00000.996094,00002.089844,00001.831055,00001.879883,00001.904297,00001.621094,00001.845703,-00000.507813,-00000.004883,-00000.463867,00000.034180,00000.009766,-00000.009766
0000000001173,00000.947266,00000.673828,00001.445313,00000.996094,00002.099609,00001.831055,00001.884766,00001.909180,00001.621094,00001.845703,-00000.512695,-00000.009766,-00000.463867,00000.029297,00000.009766,-00000.004883
0000000001174,00000.952148,00000.668945,00001.445313,00001.000977,00002.094727,00001.835938,00001.879883,00001.909180,00001.621094,00001.840820,-00000.507813,-00000.004883,-00000.463867,00000.029297,00000.009766,-00000.004883
0000000001175,00000.952148,00000.668945,00001.445313,00000.996094,00002.094727,00001.831055,00001.879883,00001.909180,00001.621094,00001.845703,-00000.512695,-00000.009766,-00000.463867,00000.034180,00000.009766,-00000.004883
0000000001176,00000.952148,00000.668945,00001.440430,00000.996094,00002.089844,00001.831055,00001.879883,00001.904297,00001.621094,00001.840820,-00000.512695,-00000.009766,-00000.463867,00000.034180,00000.009766,-00000.004883
0000000001177,00000.947266,00000.668945,00001.440430,00000.996094,00002.094727,00001.831055,00001.879883,00001.899414,00001.621094,00001.840820,-00000.517578,-00000.009766,-00000.458984,00000.034180,00000.009766,-00000.009766
0000000001178,00000.952148,00000.659180,00001.440430,00000.996094,00002.094727,00001.835938,00001.879883,00001.904297,00001.621094,00001.840820,-00000.517578,-00000.004883,-00000.458984,00000.039063,00000.014648,-00000.009766
0000000001179,00000.947266,00000.659180,00001.440430,00000.996094,00002.094727,00001.831055,00001.884766,00001.904297,00001.621094,00001.850586,-00000.522461,-00000.009766,-00000.458984,00000.039063,00000.009766,-00000.009766
0000000001180,00000.952148,00000.654297,00001.440430,00001.000977,00002.094727,00001.835938,00001.884766,00001.904297,00001.621094,00001.845703,-00000.527344,-00000.004883,-00000.458984,00000.039063,00000.014648,-00000.009766
0000000001181,00000.952148,00000.625000,00001.440430,00001.000977,00002.094727,00001.835938,00001.879883,00001.909180,00001.621094,00001.845703,-00000.532227,-00000.004883,-00000.454102,00000.039063,00000.009766,-00000.004883
0000000001182,00000.947266,00000.625000,00001.440430,00000.996094,00002.094727,00001.831055,00001.879883,00001.909180,00001.621094,00001.845703,-00000.532227,-00000.004883,-00000.454102,00000.039063,00000.009766,-00000.004883
0000000001183,00000.947266,00000.625000,00001.445313,00000.996094,00002.099609,00001.835938,00001.884766,00001.914063,00001.621094,00001.850586,-00000.537109,00000.000000,-00000.449219,00000.039063,00000.009766,-00000.009766
0000000001184,00000.947266,00000.629883,00001.445313,00001.000977,00002.094727,00001.835938,00001.884766,00001.909180,00001.621094,00001.845703,-00000.541992,00000.000000,-00000.449219,00000.043945,00000.014648,-00000.009766
0000000001185,00000.952148,00000.625000,00001.440430,00000.996094,00002.094727,00001.831055,00001.879883,00001.909180,00001.621094,00001.845703,-00000.546875,00000.000000,-00000.454102,00000.039063,00000.009766,-00000.009766
0000000001186,00000.952148,00000.620117,00001.440430,00000.996094,00002.094727,00001.835938,00001.879883,00001.909180,00001.621094,00001.845703,-00000.546875,00000.000000,-00000.449219,00000.039063,00000.009766,-00000.009766
0000000001187,00000.952148,00000.620117,00001.440430,00000.996094,00002.094727,00001.831055,00001.879883,00001.909180,00001.621094,00001.850586,-00000.551758,-00000.004883,-00000.454102,00000.034180,00000.009766,-00000.009766
0000000001188,00000.952148,00000.625000,00001.435547,00001.000977,00002.094727,00001.835938,00001.879883,00001.904297,00001.621094,00001.845703,-00000.551758,-00000.004883,-00000.454102,00000.039063,00000.009766,-00000.009766
0000000001189,00000.952148,00000.620117,00001.440430,00000.996094,00002.094727,00001.835938,00001.879883,00001.909180,00001.616211,00001.850586,-00000.551758,-00000.004883,-00000.454102,00000.034180,00000.009766,-00000.009766
0000000001190,00000.952148,00000.620117,00001.440430,00000.996094,00002.094727,00001.835938,00001.879883,00001.909180,00001.621094,00001.850586,-00000.551758,00000.000000,-00000.454102,00000.034180,00000.009766,-00000.009766
0000000001191,00000.952148,00000.620117,00001.445313,00000.996094,00002.099609,00001.835938,00001.884766,00001.909180,00001.621094,00001.850586,-00000.551758,-00000.004883,-00000.454102,00000.034180,00000.004883,-00000.009766
0000000001192,00000.952148,00000.620117,00001.445313,00000.996094,00002.094727,00001.840820,00001.879883,00001.933594,00001.621094,00001.850586,-00000.551758,00000.000000,-00000.454102,00000.034180,00000.009766,-00000.009766
0000000001193,00000.957031,00000.620117,00001.440430,00001.000977,00002.094727,00001.840820,00001.884766,00001.962891,00001.621094,00001.845703,-00000.551758,00000.000000,-00000.454102,00000.029297,00000.004883,-00000.009766
0000000001194,00000.952148,00000.620117,00001.445313,00000.996094,00002.099609,00001.840820,00001.884766,00001.967773,00001.621094,00001.850586,-00000.551758,00000.000000,-00000.454102,00000.034180,00000.004883,-00000.009766
0000000001195,00000.966797,00000.620117,00001.445313,00000.991211,00002.099609,00001.835938,00001.884766,00001.967773,00001.621094,00001.850586,-00000.551758,00000.000000,-00000.454102,00000.029297,00000.004883,-00000.009766
0000000001196,00000.966797,00000.620117,00001.440430,00001.000977,00002.094727,00001.840820,00001.884766,00001.962891,00001.630859,00001.845703,-00000.551758,00000.000000,-00000.454102,00000.029297,00000.004883,-00000.014648
0000000001197,00000.966797,00000.620117,00001.440430,00001.000977,00002.099609,00001.840820,00001.884766,00001.967773,00001.630859,00001.850586,-00000.546875,00000.000000,-00000.454102,00000.029297,00000.009766,-00000.014648
0000000001198,00000.966797,00000.625000,00001.445313,00001.000977,00002.104492,00001.845703,00001.884766,00001.967773,00001.635742,00001.855469,-00000.546875,00000.000000,-00000.458984,00000.029297,00000.004883,-00000.014648
0000000001199,00000.971680,00000.625000,00001.445313,00001.000977,00002.119141,00001.845703,00001.884766,00001.972656,00001.630859,00001.855469,-00000.546875,-00000.004883,-00000.458984,00000.024414,00000.004883,-00000.009766
0000000001200,00000.971680,00000.625000,00001.445313,00000.996094,00002.119141,00001.831055,00001.879883,00001.972656,00001.630859,00001.850586,-00000.541992,-00000.004883,-00000.458984,00000.024414,00000.004883,-00000.009766
0000000001201,00000.971680,00000.629883,00001.445313,00001.000977,00002.119141,00001.835938,00001.884766,00001.977539,00001.635742,00001.855469,-00000.541992,-00000.004883,-00000.458984,00000.024414,00000.004883,-00000.009766
0000000001202,00000.971680,00000.629883,00001.450195,00001.000977,00002.124023,00001.835938,00001.884766,00001.977539,00001.635742,00001.855469,-00000.541992,00000.000000,-00000.458984,00000.019531,00000.000000,-00000.009766
0000000001203,00000.971680,00000.629883,00001.450195,00001.000977,00002.124023,00001.840820,00001.884766,00001.972656,00001.635742,00001.850586,-00000.541992,-00000.004883,-00000.458984,00000.019531,00000.004883,-00000.009766
0000000001204,00000.976563,00000.644531,00001.445313,00001.005859,00002.119141,00001.840820,00001.884766,00001.972656,00001.635742,00001.850586,-00000.546875,00000.000000,-00000.458984,00000.019531,00000.004883,-00000.009766
0000000001205,00000.976563,00000.644531,00001.450195,00001.000977,00002.124023,00001.840820,00001.889648,00001.972656,00001.635742,00001.855469,-00000.541992,00000.000000,-00000.458984,00000.019531,00000.000000,-00000.009766
0000000001206,00000.971680,00000.649414,00001.445313,00001.005859,00002.124023,00001.840820,00001.884766,00001.972656,00001.635742,00001.855469,-00000.537109,00000.000000,-00000.458984,00000.019531,00000.004883,-00000.009766
0000000001207,00000.976563,00000.649414,00001.450195,00001.010742,00002.124023,00001.840820,00001.884766,00001.977539,00001.635742,00001.855469,-00000.541992,00000.000000,-00000.458984,00000.019531,00000.000000,-00000.014648
0000000001208,00000.976563,00000.644531,00001.445313,00001.005859,00002.119141,00001.840820,00001.879883,00001.977539,00001.635742,00001.855469,-00000.537109,00000.000000,-00000.463867,00000.014648,00000.004883,-00000.009766
0000000001209,00000.976563,00000.649414,00001.445313,00001.010742,00002.124023,00001.850586,00001.889648,00001.977539,00001.640625,00001.855469,-00000.537109,00000.000000,-00000.463867,00000.014648,00000.004883,-00000.009766
0000000001210,00000.981445,00000.644531,00001.450195,00001.015625,00002.124023,00001.850586,00001.884766,00001.997070,00001.645508,00001.860352,-00000.537109,00000.000000,-00000.463867,00000.014648,00000.004883,-00000.014648
0000000001211,00000.986328,00000.654297,00001.455078,00001.015625,00002.128906,00001.855469,00001.889648,00001.997070,00001.645508,00001.865234,-00000.537109,00000.000000,-00000.468750,00000.014648,00000.000000,-00000.014648
0000000001212,00000.986328,00000.664063,00001.455078,00001.015625,00002.128906,00001.855469,00001.884766,00001.997070,00001.650391,00001.860352,-00000.537109,00000.000000,-00000.463867,00000.014648,00000.000000,-00000.014648
0000000001213,00000.991211,00000.673828,00001.450195,00001.015625,00002.128906,00001.855469,00001.889648,00002.001953,00001.650391,00001.865234,-00000.546875,00000.000000,-00000.463867,00000.014648,00000.004883,-00000.014648
0000000001214,00000.991211,00000.673828,00001.455078,00001.015625,00002.124023,00001.855469,00001.884766,00002.001953,00001.650391,00001.865234,-00000.556641,00000.000000,-00000.458984,00000.014648,00000.000000,-00000.014648
0000000001215,00000.986328,00000.668945,00001.450195,00001.010742,00002.124023,00001.855469,00001.884766,00001.992188,00001.645508,00001.860352,-00000.581055,00000.000000,-00000.454102,00000.019531,00000.004883,-00000.014648
0000000001216,00000.981445,00000.659180,00001.445313,00001.000977,00002.124023,00001.855469,00001.884766,00001.977539,00001.635742,00001.860352,-00000.615234,00000.000000,-00000.454102,00000.019531,00000.000000,-00000.014648
0000000001217,00000.976563,00000.634766,00001.440430,00000.966797,00002.119141,00001.845703,00001.884766,00001.948242,00001.625977,00001.850586,-00000.678711,00000.000000,-00000.444336,00000.014648,00000.004883,-00000.014648
0000000001218,00000.966797,00000.625000,00001.435547,00000.957031,00002.099609,00001.840820,00001.884766,00001.909180,00001.621094,00001.850586,-00000.747070,-00000.004883,-00000.439453,00000.014648,00000.004883,-00000.014648
0000000001219,00000.952148,00000.615234,00001.435547,00000.937500,00002.099609,00001.831055,00001.879883,00001.899414,00001.611328,00001.850586,-00000.820313,-00000.009766,-00000.434570,00000.014648,00000.000000,-00000.014648
0000000001220,00000.947266,00000.610352,00001.420898,00000.932617,00002.094727,00001.835938,00001.879883,00001.899414,00001.591797,00001.850586,-00000.878906,-00000.009766,-00000.434570,00000.019531,00000.000000,-00000.014648
0000000001221,00000.942383,00000.600586,00001.416016,00000.917969,00002.094727,00001.840820,00001.875000,00001.894531,00001.582031,00001.845703,-00000.932617,-00000.009766,-00000.434570,00000.019531,00000.004883,-00000.014648
0000000001222,00000.932617,00000.600586,00001.411133,00000.913086,00002.094727,00001.831055,00001.875000,00001.889648,00001.586914,00001.840820,-00000.971680,-00000.009766,-00000.439453,00000.019531,00000.004883,-00000.014648
0000000001223,00000.932617,00000.600586,00001.411133,00000.913086,00002.094727,00001.831055,00001.875000,00001.884766,00001.591797,00001.835938,-00001.010742,-00000.024414,-00000.439453,00000.019531,00000.000000,-00000.014648
0000000001224,00000.932617,00000.600586,00001.411133,00000.908203,00002.094727,00001.835938,00001.875000,00001.884766,00001.582031,00001.835938,-00001.049805,-00000.024414,-00000.439453,00000.024414,00000.000000,-00000.014648
0000000001225,00000.932617,00000.595703,00001.406250,00000.898438,00002.094727,00001.835938,00001.870117,00001.884766,00001.567383,00001.835938,-00001.132813,-00000.034180,-00000.434570,00000.029297,00000.004883,-00000.014648
0000000001226,00000.927734,00000.595703,00001.401367,00000.888672,00002.089844,00001.831055,00001.870117,00001.879883,00001.562500,00001.826172,-00001.220703,-00000.034180,-00000.424805,00000.034180,00000.004883,-00000.014648
0000000001227,00000.927734,00000.590820,00001.401367,00000.878906,00002.094727,00001.831055,00001.870117,00001.875000,00001.557617,00001.831055,-00001.342773,-00000.043945,-00000.415039,00000.039063,00000.004883,-00000.009766
0000000001228,00000.917969,00000.595703,00001.401367,00000.864258,00002.094727,00001.826172,00001.870117,00001.860352,00001.562500,00001.826172,-00001.523438,-00000.048828,-00000.400391,00000.048828,00000.000000,-00000.014648
0000000001229,00000.913086,00000.585938,00001.396484,00000.849609,00002.094727,00001.821289,00001.865234,00001.850586,00001.557617,00001.816406,-00001.694336,-00000.058594,-00000.395508,00000.048828,00000.000000,-00000.014648
0000000001230,00000.903320,00000.585938,00001.391602,00000.825195,00002.099609,00001.816406,00001.870117,00001.840820,00001.538086,00001.811523,-00001.889648,-00000.073242,-00000.366211,00000.048828,00000.004883,-00000.014648
0000000001231,00000.893555,00000.585938,00001.386719,00000.761719,00002.094727,00001.801758,00001.870117,00001.826172,00001.528320,00001.801758,-00002.084961,-00000.087891,-00000.351563,00000.063477,00000.004883,-00000.009766
0000000001232,00000.888672,00000.576172,00001.372070,00000.654297,00002.089844,00001.801758,00001.865234,00001.821289,00001.518555,00001.791992,-00002.309570,-00000.102539,-00000.317383,00000.078125,00000.000000,-00000.014648
0000000001233,00000.883789,00000.566406,00001.362305,00000.610352,00002.089844,00001.796875,00001.865234,00001.752930,00001.503906,00001.782227,-00002.539063,-00000.112305,-00000.283203,00000.087891,00000.004883,-00000.014648
0000000001234,00000.874023,00000.537109,00001.347656,00000.576172,00002.094727,00001.791992,00001.870117,00001.708984,00001.479492,00001.777344,-00002.802734,-00000.141602,-00000.263672,00000.097656,00000.014648,-00000.024414
0000000001235,00000.849609,00000.493164,00001.337891,00000.522461,00002.084961,00001.787109,00001.865234,00001.694336,00001.459961,00001.762695,-00003.061523,-00000.195313,-00000.258789,00000.078125,00000.014648,-00000.019531
0000000001236,00000.791016,00000.463867,00001.318359,00000.439453,00002.075195,00001.772461,00001.855469,00001.665039,00001.430664,00001.704102,-00003.349609,-00000.273438,-00000.229492,00000.058594,00000.000000,-00000.014648
0000000001237,00000.747070,00000.458984,00001.313477,00000.400391,00002.070313,00001.757813,00001.845703,00001.650391,00001.425781,00001.694336,-00003.549805,-00000.327148,-00000.190430,00000.053711,00000.000000,-00000.014648
0000000001238,00000.717773,00000.434570,00001.313477,00000.346680,00002.070313,00001.752930,00001.840820,00001.645508,00001.411133,00001.689453,-00003.754883,-00000.380859,-00000.151367,00000.053711,00000.000000,-00000.014648
0000000001239,00000.678711,00000.419922,00001.289063,00000.302734,00002.060547,00001.699219,00001.821289,00001.630859,00001.376953,00001.674805,-00003.979492,-00000.424805,-00000.087891,00000.097656,-00000.014648,00000.029297
0000000001240,00000.668945,00000.405273,00001.274414,00000.263672,00002.055664,00001.689453,00001.811523,00001.630859,00001.352539,00001.665039,-00004.208984,-00000.463867,-00000.014648,00000.161133,-00000.029297,00000.078125
0000000001241,00000.654297,00000.395508,00001.269531,00000.244141,00002.055664,00001.674805,00001.811523,00001.621094,00001.328125,00001.655273,-00004.428711,-00000.507813,00000.063477,00000.214844,-00000.043945,00000.107422
0000000001242,00000.649414,00000.385742,00001.264648,00000.224609,00002.050781,00001.665039,00001.806641,00001.621094,00001.323242,00001.650391,-00004.628906,-00000.551758,00000.141602,00000.263672,-00000.053711,00000.122070
0000000001243,00000.659180,00000.380859,00001.254883,00000.214844,00002.055664,00001.660156,00001.811523,00001.621094,00001.308594,00001.640625,-00004.814453,-00000.595703,00000.224609,00000.312500,-00000.043945,00000.131836
0000000001244,00000.654297,00000.380859,00001.240234,00000.195313,00002.055664,00001.660156,00001.811523,00001.621094,00001.303711,00001.611328,-00004.990234,-00000.639648,00000.288086,00000.351563,-00000.024414,00000.131836
0000000001245,00000.659180,00000.375977,00001.225586,00000.185547,00002.055664,00001.660156,00001.811523,00001.621094,00001.289063,00001.616211,-00005.175781,-00000.688477,00000.356445,00000.405273,00000.009766,00000.112305
0000000001246,00000.664063,00000.366211,00001.220703,00000.175781,00002.055664,00001.665039,00001.806641,00001.625977,00001.284180,00001.586914,-00005.292969,-00000.708008,00000.419922,00000.444336,00000.029297,00000.087891
0000000001247,00000.668945,00000.361328,00001.206055,00000.166016,00002.050781,00001.660156,00001.801758,00001.621094,00001.279297,00001.601563,-00005.390625,-00000.722656,00000.478516,00000.488281,00000.039063,00000.073242
0000000001248,00000.668945,00000.351563,00001.196289,00000.156250,00002.050781,00001.665039,00001.801758,00001.621094,00001.274414,00001.601563,-00005.458984,-00000.727539,00000.527344,00000.522461,00000.048828,00000.048828
0000000001249,00000.664063,00000.341797,00001.186523,00000.151367,00002.050781,00001.660156,00001.801758,00001.621094,00001.264648,00001.596680,-00005.527344,-00000.732422,00000.585938,00000.566406,00000.068359,00000.039063
0000000001250,00000.668945,00000.336914,00001.176758,00000.107422,00002.045898,00001.660156,00001.801758,00001.616211,00001.259766,00001.591797,-00005.600586,-00000.737305,00000.644531,00000.605469,00000.083008,00000.034180
0000000001251,00000.668945,00000.336914,00001.171875,00000.063477,00002.055664,00001.660156,00001.801758,00001.611328,00001.259766,00001.591797,-00005.659180,-00000.747070,00000.683594,00000.629883,00000.097656,00000.039063
0000000001252,00000.668945,00000.322266,00001.157227,00000.043945,00002.050781,00001.674805,00001.801758,00001.611328,00001.259766,00001.586914,-00005.703125,-00000.742188,00000.727539,00000.659180,00000.112305,00000.039063
0000000001253,00000.664063,00000.322266,00001.152344,00000.043945,00002.055664,00001.679688,00001.796875,00001.611328,00001.254883,00001.582031,-00005.761719,-00000.751953,00000.756836,00000.688477,00000.112305,00000.029297
0000000001254,00000.664063,00000.312500,00001.152344,00000.043945,00002.050781,00001.689453,00001.791992,00001.606445,00001.250000,00001.577148,-00005.786133,-00000.742188,00000.776367,00000.708008,00000.107422,00000.024414
0000000001255,00000.664063,00000.307617,00001.142578,00000.043945,00002.050781,00001.694336,00001.787109,00001.606445,00001.245117,00001.567383,-00005.815430,-00000.737305,00000.810547,00000.732422,00000.117188,00000.024414
0000000001256,00000.659180,00000.302734,00001.137695,00000.043945,00002.055664,00001.699219,00001.791992,00001.606445,00001.250000,00001.533203,-00005.830078,-00000.727539,00000.839844,00000.747070,00000.126953,00000.034180
0000000001257,00000.659180,00000.297852,00001.132813,00000.043945,00002.055664,00001.718750,00001.787109,00001.601563,00001.245117,00001.494141,-00005.854492,-00000.727539,00000.844727,00000.751953,00000.136719,00000.039063
0000000001258,00000.659180,00000.288086,00001.132813,00000.043945,00002.050781,00001.733398,00001.782227,00001.601563,00001.245117,00001.494141,-00005.874023,-00000.717773,00000.854492,00000.761719,00000.141602,00000.058594
0000000001259,00000.654297,00000.278320,00001.127930,00000.043945,00002.050781,00001.748047,00001.777344,00001.601563,00001.245117,00001.479492,-00005.878906,-00000.703125,00000.864258,00000.766602,00000.146484,00000.063477
0000000001260,00000.649414,00000.273438,00001.123047,00000.043945,00002.045898,00001.748047,00001.777344,00001.596680,00001.245117,00001.469727,-00005.874023,-00000.693359,00000.874023,00000.771484,00000.146484,00000.073242
0000000001261,00000.644531,00000.268555,00001.123047,00000.043945,00002.050781,00001.748047,00001.777344,00001.601563,00001.240234,00001.464844,-00005.908203,-00000.703125,00000.888672,00000.795898,00000.146484,00000.078125
0000000001262,00000.644531,00000.268555,00001.118164,00000.043945,00002.050781,00001.757813,00001.772461,00001.601563,00001.240234,00001.455078,-00005.942383,-00000.698242,00000.908203,00000.825195,00000.146484,00000.073242
0000000001263,00000.649414,00000.263672,00001.118164,00000.043945,00002.050781,00001.762695,00001.772461,00001.601563,00001.235352,00001.469727,-00005.971680,-00000.698242,00000.913086,00000.849609,00000.166016,00000.068359
0000000001264,00000.654297,00000.263672,00001.118164,00000.043945,00002.050781,00001.767578,00001.772461,00001.601563,00001.240234,00001.459961,-00005.996094,-00000.693359,00000.922852,00000.869141,00000.180664,00000.048828
0000000001265,00000.649414,00000.263672,00001.113281,00000.043945,00002.050781,00001.772461,00001.772461,00001.601563,00001.240234,00001.445313,-00006.010742,-00000.703125,00000.927734,00000.883789,00000.175781,00000.024414
0000000001266,00000.644531,00000.253906,00001.108398,00000.043945,00002.050781,00001.772461,00001.772461,00001.596680,00001.235352,00001.440430,-00006.035156,-00000.717773,00000.927734,00000.908203,00000.166016,00000.014648
0000000001267,00000.639648,00000.239258,00001.103516,00000.043945,00002.050781,00001.777344,00001.767578,00001.596680,00001.225586,00001.411133,-00006.049805,-00000.717773,00000.947266,00000.932617,00000.185547,00000.009766
0000000001268,00000.625000,00000.229492,00001.093750,00000.043945,00002.045898,00001.782227,00001.752930,00001.591797,00001.210938,00001.357422,-00006.093750,-00000.737305,00000.952148,00000.957031,00000.205078,00000.014648
0000000001269,00000.620117,00000.224609,00001.083984,00000.043945,00002.041016,00001.777344,00001.738281,00001.582031,00001.210938,00001.347656,-00006.123047,-00000.737305,00000.966797,00000.986328,00000.224609,00000.024414
0000000001270,00000.620117,00000.224609,00001.079102,00000.043945,00002.036133,00001.787109,00001.728516,00001.557617,00001.201172,00001.342773,-00006.142578,-00000.732422,00000.981445,00001.000977,00000.249023,00000.039063
0000000001271,00000.620117,00000.219727,00001.079102,00000.043945,00002.036133,00001.787109,00001.728516,00001.552734,00001.201172,00001.342773,-00006.166992,-00000.751953,00000.976563,00001.005859,00000.244141,00000.048828
0000000001272,00000.615234,00000.195313,00001.074219,00000.043945,00002.031250,00001.801758,00001.713867,00001.552734,00001.191406,00001.342773,-00006.176758,-00000.761719,00000.966797,00001.005859,00000.239258,00000.053711
0000000001273,00000.615234,00000.185547,00001.074219,00000.043945,00002.036133,00001.826172,00001.708984,00001.542969,00001.191406,00001.337891,-00006.186523,-00000.747070,00000.986328,00001.020508,00000.244141,00000.039063
0000000001274,00000.605469,00000.185547,00001.074219,00000.043945,00002.036133,00001.816406,00001.708984,00001.538086,00001.191406,00001.342773,-00006.191406,-00000.732422,00001.000977,00001.054688,00000.258789,00000.024414
0000000001275,00000.610352,00000.175781,00001.079102,00000.043945,00002.036133,00001.835938,00001.704102,00001.538086,00001.186523,00001.342773,-00006.191406,-00000.727539,00001.005859,00001.074219,00000.263672,00000.009766
0000000001276,00000.605469,00000.166016,00001.074219,00000.043945,00002.031250,00001.826172,00001.704102,00001.538086,00001.186523,00001.342773,-00006.201172,-00000.732422,00001.005859,00001.074219,00000.268555,00000.004883
0000000001277,00000.600586,00000.166016,00001.074219,00000.043945,00002.036133,00001.831055,00001.708984,00001.533203,00001.186523,00001.337891,-00006.196289,-00000.727539,00001.000977,00001.059570,00000.253906,00000.000000
0000000001278,00000.595703,00000.161133,00001.079102,00000.043945,00002.036133,00001.865234,00001.704102,00001.533203,00001.186523,00001.337891,-00006.181641,-00000.708008,00001.010742,00001.044922,00000.239258,-00000.004883
0000000001279,00000.590820,00000.161133,00001.079102,00000.043945,00002.036133,00001.870117,00001.704102,00001.533203,00001.186523,00001.342773,-00006.137695,-00000.678711,00001.030273,00001.064453,00000.229492,-00000.009766
0000000001280,00000.595703,00000.161133,00001.083984,00000.043945,00002.036133,00001.884766,00001.704102,00001.533203,00001.186523,00001.352539,-00006.079102,-00000.639648,00001.049805,00001.093750,00000.229492,-00000.014648
0000000001281,00000.595703,00000.161133,00001.088867,00000.043945,00002.036133,00001.889648,00001.708984,00001.523438,00001.191406,00001.381836,-00006.059570,-00000.625000,00001.054688,00001.113281,00000.219727,-00000.014648
0000000001282,00000.585938,00000.166016,00001.088867,00000.043945,00002.041016,00001.884766,00001.708984,00001.513672,00001.191406,00001.381836,-00006.054688,-00000.615234,00001.049805,00001.123047,00000.219727,-00000.009766
0000000001283,00000.581055,00000.161133,00001.093750,00000.043945,00002.036133,00001.894531,00001.708984,00001.518555,00001.191406,00001.386719,-00006.040039,-00000.605469,00001.040039,00001.118164,00000.224609,00000.000000
0000000001284,00000.576172,00000.151367,00001.093750,00000.043945,00002.036133,00001.894531,00001.704102,00001.513672,00001.186523,00001.391602,-00006.000977,-00000.590820,00001.040039,00001.118164,00000.224609,00000.004883
0000000001285,00000.571289,00000.151367,00001.093750,00000.043945,00002.041016,00001.894531,00001.708984,00001.508789,00001.191406,00001.396484,-00005.922852,-00000.556641,00001.049805,00001.127930,00000.219727,00000.019531
0000000001286,00000.556641,00000.146484,00001.098633,00000.043945,00002.041016,00001.899414,00001.708984,00001.499023,00001.186523,00001.401367,-00005.854492,-00000.512695,00001.059570,00001.147461,00000.219727,00000.048828
0000000001287,00000.551758,00000.136719,00001.098633,00000.043945,00002.036133,00001.904297,00001.704102,00001.489258,00001.176758,00001.411133,-00005.830078,-00000.473633,00001.069336,00001.166992,00000.229492,00000.058594
0000000001288,00000.546875,00000.131836,00001.098633,00000.043945,00002.036133,00001.904297,00001.704102,00001.484375,00001.176758,00001.411133,-00005.815430,-00000.454102,00001.074219,00001.186523,00000.244141,00000.073242
0000000001289,00000.541992,00000.131836,00001.098633,00000.043945,00002.041016,00001.904297,00001.708984,00001.479492,00001.181641,00001.416016,-00005.800781,-00000.444336,00001.074219,00001.191406,00000.249023,00000.083008
0000000001290,00000.537109,00000.122070,00001.093750,00000.043945,00002.041016,00001.899414,00001.708984,00001.450195,00001.176758,00001.416016,-00005.756836,-00000.424805,00001.074219,00001.196289,00000.244141,00000.097656
0000000001291,00000.527344,00000.117188,00001.103516,00000.043945,00002.041016,00001.909180,00001.708984,00001.455078,00001.176758,00001.425781,-00005.703125,-00000.400391,00001.083984,00001.215820,00000.234375,00000.112305
0000000001292,00000.522461,00000.117188,00001.108398,00000.043945,00002.036133,00001.914063,00001.708984,00001.440430,00001.171875,00001.464844,-00005.659180,-00000.371094,00001.093750,00001.240234,00000.219727,00000.107422
0000000001293,00000.512695,00000.112305,00001.118164,00000.043945,00002.041016,00001.918945,00001.708984,00001.430664,00001.171875,00001.474609,-00005.678711,-00000.351563,00001.108398,00001.259766,00000.229492,00000.117188
0000000001294,00000.507813,00000.107422,00001.132813,00000.043945,00002.041016,00001.918945,00001.708984,00001.425781,00001.171875,00001.518555,-00005.703125,-00000.336914,00001.108398,00001.269531,00000.239258,00000.126953
0000000001295,00000.502930,00000.097656,00001.137695,00000.043945,00002.036133,00001.928711,00001.708984,00001.425781,00001.166992,00001.518555,-00005.683594,-00000.322266,00001.108398,00001.269531,00000.258789,00000.146484
0000000001296,00000.493164,00000.083008,00001.142578,00000.043945,00002.041016,00001.928711,00001.708984,00001.425781,00001.166992,00001.528320,-00005.620117,-00000.302734,00001.108398,00001.284180,00000.258789,00000.156250
0000000001297,00000.488281,00000.083008,00001.152344,00000.043945,00002.045898,00001.933594,00001.713867,00001.425781,00001.171875,00001.552734,-00005.561523,-00000.278320,00001.123047,00001.293945,00000.263672,00000.151367
0000000001298,00000.493164,00000.078125,00001.152344,00000.043945,00002.036133,00001.938477,00001.708984,00001.430664,00001.166992,00001.557617,-00005.522461,-00000.258789,00001.132813,00001.328125,00000.268555,00000.141602
0000000001299,00000.493164,00000.078125,00001.157227,00000.043945,00002.045898,00001.938477,00001.708984,00001.430664,00001.166992,00001.577148,-00005.493164,-00000.244141,00001.142578,00001.347656,00000.268555,00000.131836
0000000001300,00000.488281,00000.078125,00001.157227,00000.043945,00002.041016,00001.943359,00001.718750,00001.430664,00001.166992,00001.577148,-00005.512695,-00000.234375,00001.142578,00001.357422,00000.273438,00000.146484
0000000001301,00000.488281,00000.083008,00001.162109,00000.043945,00002.050781,00001.943359,00001.723633,00001.430664,00001.171875,00001.586914,-00005.517578,-00000.219727,00001.147461,00001.376953,00000.273438,00000.146484
0000000001302,00000.483398,00000.078125,00001.162109,00000.043945,00002.050781,00001.953125,00001.723633,00001.435547,00001.171875,00001.591797,-00005.493164,-00000.205078,00001.142578,00001.381836,00000.278320,00000.166016
0000000001303,00000.478516,00000.073242,00001.162109,00000.043945,00002.045898,00001.953125,00001.728516,00001.440430,00001.171875,00001.596680,-00005.454102,-00000.175781,00001.127930,00001.372070,00000.278320,00000.195313
0000000001304,00000.473633,00000.068359,00001.176758,00000.043945,00002.045898,00001.962891,00001.728516,00001.440430,00001.171875,00001.596680,-00005.434570,-00000.156250,00001.132813,00001.381836,00000.292969,00000.214844
0000000001305,00000.468750,00000.068359,00001.186523,00000.043945,00002.050781,00001.962891,00001.728516,00001.445313,00001.171875,00001.596680,-00005.419922,-00000.156250,00001.147461,00001.411133,00000.302734,00000.219727
0000000001306,00000.473633,00000.068359,00001.191406,00000.043945,00002.050781,00001.962891,00001.733398,00001.445313,00001.176758,00001.606445,-00005.415039,-00000.151367,00001.162109,00001.435547,00000.307617,00000.219727
0000000001307,00000.473633,00000.063477,00001.201172,00000.043945,00002.050781,00001.967773,00001.738281,00001.450195,00001.176758,00001.616211,-00005.390625,-00000.136719,00001.166992,00001.459961,00000.312500,00000.219727
0000000001308,00000.473633,00000.053711,00001.210938,00000.043945,00002.045898,00001.972656,00001.733398,00001.455078,00001.176758,00001.625977,-00005.385742,-00000.131836,00001.166992,00001.469727,00000.317383,00000.229492
0000000001309,00000.473633,00000.048828,00001.210938,00000.043945,00002.050781,00001.967773,00001.738281,00001.450195,00001.176758,00001.625977,-00005.385742,-00000.117188,00001.157227,00001.464844,00000.327148,00000.234375
0000000001310,00000.473633,00000.043945,00001.220703,00000.043945,00002.050781,00001.972656,00001.738281,00001.455078,00001.176758,00001.625977,-00005.371094,-00000.107422,00001.147461,00001.459961,00000.322266,00000.244141
0000000001311,00000.478516,00000.043945,00001.225586,00000.043945,00002.050781,00001.982422,00001.743164,00001.459961,00001.186523,00001.635742,-00005.317383,-00000.102539,00001.147461,00001.455078,00000.322266,00000.249023
0000000001312,00000.483398,00000.043945,00001.225586,00000.043945,00002.050781,00001.987305,00001.748047,00001.459961,00001.196289,00001.640625,-00005.278320,-00000.087891,00001.157227,00001.469727,00000.322266,00000.258789
0000000001313,00000.473633,00000.048828,00001.230469,00000.043945,00002.055664,00001.977539,00001.748047,00001.459961,00001.196289,00001.640625,-00005.258789,-00000.097656,00001.166992,00001.489258,00000.322266,00000.249023
0000000001314,00000.478516,00000.043945,00001.225586,00000.043945,00002.050781,00001.982422,00001.743164,00001.455078,00001.191406,00001.635742,-00005.292969,-00000.112305,00001.166992,00001.513672,00000.332031,00000.253906
0000000001315,00000.473633,00000.043945,00001.220703,00000.043945,00002.050781,00001.977539,00001.743164,00001.450195,00001.181641,00001.640625,-00005.336914,-00000.112305,00001.157227,00001.523438,00000.327148,00000.258789
0000000001316,00000.473633,00000.043945,00001.220703,00000.043945,00002.050781,00001.982422,00001.733398,00001.450195,00001.176758,00001.640625,-00005.341797,-00000.107422,00001.152344,00001.518555,00000.322266,00000.249023
0000000001317,00000.468750,00000.043945,00001.215820,00000.043945,00002.045898,00001.977539,00001.733398,00001.445313,00001.176758,00001.635742,-00005.312500,-00000.092773,00001.166992,00001.518555,00000.312500,00000.239258
0000000001318,00000.463867,00000.043945,00001.225586,00000.043945,00002.045898,00001.982422,00001.728516,00001.450195,00001.166992,00001.635742,-00005.302734,-00000.083008,00001.181641,00001.538086,00000.317383,00000.244141
0000000001319,00000.468750,00000.043945,00001.230469,00000.043945,00002.045898,00001.982422,00001.728516,00001.450195,00001.171875,00001.640625,-00005.292969,-00000.087891,00001.196289,00001.567383,00000.336914,00000.234375
0000000001320,00000.468750,00000.043945,00001.225586,00000.043945,00002.041016,00001.977539,00001.728516,00001.445313,00001.166992,00001.640625,-00005.288086,-00000.097656,00001.201172,00001.577148,00000.351563,00000.229492
0000000001321,00000.463867,00000.043945,00001.220703,00000.043945,00002.045898,00001.977539,00001.728516,00001.445313,00001.171875,00001.640625,-00005.297852,-00000.112305,00001.196289,00001.577148,00000.346680,00000.224609
0000000001322,00000.463867,00000.043945,00001.220703,00000.043945,00002.045898,00001.977539,00001.723633,00001.440430,00001.171875,00001.635742,-00005.292969,-00000.117188,00001.191406,00001.577148,00000.336914,00000.229492
0000000001323,00000.463867,00000.043945,00001.220703,00000.043945,00002.041016,00001.977539,00001.723633,00001.440430,00001.171875,00001.635742,-00005.302734,-00000.122070,00001.191406,00001.596680,00000.356445,00000.229492
0000000001324,00000.468750,00000.043945,00001.220703,00000.043945,00002.045898,00001.982422,00001.718750,00001.445313,00001.166992,00001.635742,-00005.292969,-00000.131836,00001.191406,00001.621094,00000.380859,00000.219727
0000000001325,00000.468750,00000.043945,00001.220703,00000.043945,00002.041016,00001.982422,00001.723633,00001.445313,00001.171875,00001.635742,-00005.317383,-00000.146484,00001.181641,00001.630859,00000.400391,00000.229492
0000000001326,00000.468750,00000.043945,00001.220703,00000.043945,00002.045898,00001.992188,00001.723633,00001.445313,00001.171875,00001.635742,-00005.341797,-00000.166016,00001.162109,00001.621094,00000.410156,00000.229492
0000000001327,00000.468750,00000.043945,00001.220703,00000.043945,00002.045898,00001.992188,00001.723633,00001.440430,00001.171875,00001.635742,-00005.380859,-00000.195313,00001.142578,00001.606445,00000.419922,00000.229492
0000000001328,00000.468750,00000.043945,00001.220703,00000.043945,00002.041016,00002.006836,00001.718750,00001.445313,00001.171875,00001.635742,-00005.395508,-00000.219727,00001.123047,00001.582031,00000.415039,00000.219727
0000000001329,00000.473633,00000.043945,00001.225586,00000.043945,00002.045898,00002.016602,00001.723633,00001.450195,00001.176758,00001.640625,-00005.375977,-00000.214844,00001.142578,00001.572266,00000.405273,00000.195313
0000000001330,00000.473633,00000.043945,00001.245117,00000.043945,00002.045898,00002.016602,00001.723633,00001.450195,00001.181641,00001.640625,-00005.332031,-00000.200195,00001.162109,00001.591797,00000.395508,00000.161133
0000000001331,00000.473633,00000.043945,00001.254883,00000.043945,00002.050781,00002.016602,00001.733398,00001.450195,00001.186523,00001.645508,-00005.288086,-00000.190430,00001.176758,00001.616211,00000.390625,00000.151367
0000000001332,00000.478516,00000.043945,00001.254883,00000.043945,00002.045898,00002.021484,00001.733398,00001.450195,00001.186523,00001.640625,-00005.307617,-00000.205078,00001.162109,00001.611328,00000.385742,00000.170898
0000000001333,00000.483398,00000.043945,00001.250000,00000.043945,00002.045898,00002.026367,00001.728516,00001.450195,00001.186523,00001.640625,-00005.297852,-00000.234375,00001.137695,00001.606445,00000.390625,00000.224609
0000000001334,00000.488281,00000.043945,00001.254883,00000.043945,00002.050781,00002.026367,00001.733398,00001.450195,00001.196289,00001.640625,-00005.219727,-00000.253906,00001.147461,00001.630859,00000.385742,00000.200195
0000000001335,00000.493164,00000.043945,00001.254883,00000.043945,00002.055664,00002.026367,00001.738281,00001.455078,00001.206055,00001.645508,-00005.190430,-00000.258789,00001.157227,00001.635742,00000.395508,00000.170898
0000000001336,00000.502930,00000.043945,00001.250000,00000.043945,00002.050781,00002.045898,00001.733398,00001.459961,00001.206055,00001.645508,-00005.273438,-00000.288086,00001.147461,00001.621094,00000.410156,00000.151367
0000000001337,00000.502930,00000.043945,00001.254883,00000.043945,00002.050781,00002.075195,00001.738281,00001.464844,00001.210938,00001.650391,-00005.302734,-00000.292969,00001.142578,00001.611328,00000.405273,00000.141602
0000000001338,00000.502930,00000.048828,00001.254883,00000.043945,00002.050781,00002.094727,00001.738281,00001.464844,00001.215820,00001.655273,-00005.258789,-00000.278320,00001.162109,00001.606445,00000.424805,00000.156250
0000000001339,00000.502930,00000.048828,00001.259766,00000.043945,00002.055664,00002.089844,00001.738281,00001.464844,00001.215820,00001.655273,-00005.249023,-00000.263672,00001.162109,00001.606445,00000.439453,00000.166016
0000000001340,00000.498047,00000.048828,00001.254883,00000.043945,00002.055664,00002.080078,00001.738281,00001.459961,00001.215820,00001.650391,-00005.209961,-00000.268555,00001.147461,00001.586914,00000.429688,00000.190430
0000000001341,00000.507813,00000.043945,00001.264648,00000.043945,00002.055664,00002.080078,00001.743164,00001.464844,00001.225586,00001.655273,-00005.131836,-00000.268555,00001.127930,00001.567383,00000.410156,00000.219727
0000000001342,00000.507813,00000.048828,00001.264648,00000.043945,00002.050781,00002.075195,00001.743164,00001.469727,00001.220703,00001.655273,-00005.112305,-00000.263672,00001.137695,00001.582031,00000.434570,00000.229492
0000000001343,00000.517578,00000.058594,00001.259766,00000.043945,00002.055664,00002.075195,00001.752930,00001.469727,00001.225586,00001.660156,-00005.156250,-00000.297852,00001.123047,00001.577148,00000.463867,00000.209961
0000000001344,00000.527344,00000.053711,00001.254883,00000.043945,00002.055664,00002.084961,00001.748047,00001.469727,00001.220703,00001.660156,-00005.161133,-00000.317383,00001.108398,00001.562500,00000.454102,00000.185547
0000000001345,00000.527344,00000.068359,00001.264648,00000.043945,00002.050781,00002.104492,00001.757813,00001.489258,00001.235352,00001.660156,-00005.126953,-00000.327148,00001.103516,00001.547852,00000.468750,00000.200195
0000000001346,00000.527344,00000.083008,00001.264648,00000.043945,00002.055664,00002.104492,00001.757813,00001.508789,00001.245117,00001.665039,-00005.102539,-00000.312500,00001.118164,00001.542969,00000.488281,00000.200195
0000000001347,00000.556641,00000.083008,00001.250000,00000.043945,00002.050781,00002.104492,00001.757813,00001.513672,00001.250000,00001.665039,-00005.029297,-00000.322266,00001.123047,00001.479492,00000.458984,00000.141602
0000000001348,00000.541992,00000.073242,00001.240234,00000.043945,00002.055664,00002.084961,00001.738281,00001.464844,00001.230469,00001.660156,-00005.000000,-00000.307617,00001.118164,00001.484375,00000.458984,00000.131836
0000000001349,00000.532227,00000.068359,00001.230469,00000.043945,00002.050781,00002.084961,00001.733398,00001.464844,00001.225586,00001.660156,-00005.000000,-00000.317383,00001.108398,00001.464844,00000.449219,00000.131836
0000000001350,00000.527344,00000.058594,00001.225586,00000.043945,00002.055664,00002.080078,00001.738281,00001.464844,00001.215820,00001.660156,-00004.985352,-00000.322266,00001.098633,00001.455078,00000.449219,00000.156250
0000000001351,00000.527344,00000.058594,00001.230469,00000.043945,00002.055664,00002.080078,00001.733398,00001.464844,00001.215820,00001.665039,-00004.946289,-00000.302734,00001.108398,00001.469727,00000.454102,00000.166016
0000000001352,00000.522461,00000.053711,00001.225586,00000.043945,00002.055664,00002.070313,00001.738281,00001.459961,00001.215820,00001.660156,-00004.902344,-00000.268555,00001.113281,00001.474609,00000.454102,00000.175781
0000000001353,00000.522461,00000.048828,00001.225586,00000.043945,00002.055664,00002.065430,00001.738281,00001.455078,00001.215820,00001.660156,-00004.916992,-00000.263672,00001.108398,00001.474609,00000.444336,00000.190430
0000000001354,00000.522461,00000.053711,00001.225586,00000.043945,00002.055664,00002.065430,00001.733398,00001.464844,00001.215820,00001.660156,-00004.926758,-00000.249023,00001.118164,00001.484375,00000.444336,00000.175781
0000000001355,00000.527344,00000.053711,00001.250000,00000.043945,00002.050781,00002.070313,00001.738281,00001.474609,00001.225586,00001.660156,-00004.843750,-00000.205078,00001.152344,00001.499023,00000.458984,00000.146484
0000000001356,00000.527344,00000.053711,00001.245117,00000.043945,00002.050781,00002.065430,00001.743164,00001.474609,00001.230469,00001.660156,-00004.804688,-00000.175781,00001.152344,00001.489258,00000.449219,00000.146484
0000000001357,00000.522461,00000.048828,00001.250000,00000.043945,00002.060547,00002.065430,00001.748047,00001.474609,00001.230469,00001.660156,-00004.799805,-00000.170898,00001.118164,00001.474609,00000.449219,00000.180664
0000000001358,00000.522461,00000.048828,00001.250000,00000.043945,00002.055664,00002.060547,00001.748047,00001.474609,00001.235352,00001.665039,-00004.794922,-00000.170898,00001.108398,00001.464844,00000.478516,00000.205078
0000000001359,00000.522461,00000.048828,00001.254883,00000.043945,00002.055664,00002.060547,00001.757813,00001.484375,00001.235352,00001.660156,-00004.775391,-00000.156250,00001.123047,00001.464844,00000.502930,00000.205078
0000000001360,00000.522461,00000.048828,00001.254883,00000.043945,00002.055664,00002.060547,00001.757813,00001.494141,00001.235352,00001.660156,-00004.750977,-00000.131836,00001.137695,00001.455078,00000.522461,00000.170898
0000000001361,00000.527344,00000.048828,00001.250000,00000.043945,00002.055664,00002.060547,00001.757813,00001.494141,00001.235352,00001.660156,-00004.780273,-00000.126953,00001.137695,00001.445313,00000.512695,00000.151367
0000000001362,00000.527344,00000.048828,00001.254883,00000.043945,00002.055664,00002.065430,00001.757813,00001.508789,00001.245117,00001.660156,-00004.760742,-00000.122070,00001.142578,00001.455078,00000.507813,00000.156250
0000000001363,00000.527344,00000.063477,00001.289063,00000.048828,00002.055664,00002.065430,00001.757813,00001.513672,00001.254883,00001.665039,-00004.716797,-00000.117188,00001.147461,00001.499023,00000.522461,00000.200195
0000000001364,00000.532227,00000.063477,00001.289063,00000.043945,00002.055664,00002.070313,00001.762695,00001.518555,00001.259766,00001.665039,-00004.721680,-00000.122070,00001.147461,00001.518555,00000.527344,00000.224609
0000000001365,00000.537109,00000.053711,00001.274414,00000.043945,00002.050781,00002.075195,00001.762695,00001.513672,00001.250000,00001.660156,-00004.794922,-00000.166016,00001.132813,00001.494141,00000.537109,00000.214844
0000000001366,00000.541992,00000.058594,00001.279297,00000.043945,00002.060547,00002.080078,00001.772461,00001.503906,00001.264648,00001.669922,-00004.794922,-00000.161133,00001.132813,00001.484375,00000.532227,00000.185547
0000000001367,00000.556641,00000.068359,00001.293945,00000.068359,00002.055664,00002.089844,00001.772461,00001.523438,00001.279297,00001.665039,-00004.760742,-00000.136719,00001.147461,00001.494141,00000.527344,00000.166016
0000000001368,00000.556641,00000.073242,00001.293945,00000.073242,00002.060547,00002.075195,00001.777344,00001.518555,00001.289063,00001.665039,-00004.697266,-00000.126953,00001.152344,00001.523438,00000.532227,00000.175781
0000000001369,00000.561523,00000.073242,00001.293945,00000.068359,00002.060547,00002.080078,00001.777344,00001.523438,00001.284180,00001.669922,-00004.677734,-00000.131836,00001.142578,00001.518555,00000.541992,00000.200195
0000000001370,00000.566406,00000.073242,00001.293945,00000.073242,00002.055664,00002.080078,00001.777344,00001.523438,00001.293945,00001.665039,-00004.687500,-00000.161133,00001.132813,00001.518555,00000.546875,00000.161133
0000000001371,00000.571289,00000.078125,00001.289063,00000.083008,00002.060547,00002.080078,00001.782227,00001.523438,00001.303711,00001.665039,-00004.702148,-00000.175781,00001.132813,00001.513672,00000.566406,00000.146484
0000000001372,00000.585938,00000.087891,00001.293945,00000.102539,00002.060547,00002.089844,00001.787109,00001.528320,00001.313477,00001.669922,-00004.667969,-00000.151367,00001.162109,00001.499023,00000.576172,00000.126953
0000000001373,00000.590820,00000.092773,00001.303711,00000.112305,00002.060547,00002.089844,00001.782227,00001.533203,00001.313477,00001.669922,-00004.609375,-00000.131836,00001.166992,00001.479492,00000.571289,00000.126953
0000000001374,00000.576172,00000.087891,00001.289063,00000.112305,00002.060547,00002.075195,00001.777344,00001.528320,00001.308594,00001.669922,-00004.541016,-00000.131836,00001.157227,00001.474609,00000.566406,00000.141602
0000000001375,00000.576172,00000.083008,00001.284180,00000.107422,00002.060547,00002.075195,00001.772461,00001.528320,00001.289063,00001.665039,-00004.506836,-00000.131836,00001.142578,00001.469727,00000.566406,00000.151367
0000000001376,00000.571289,00000.083008,00001.269531,00000.102539,00002.060547,00002.060547,00001.767578,00001.518555,00001.279297,00001.665039,-00004.423828,-00000.112305,00001.137695,00001.450195,00000.571289,00000.136719
0000000001377,00000.576172,00000.083008,00001.254883,00000.097656,00002.060547,00002.055664,00001.762695,00001.518555,00001.264648,00001.665039,-00004.414063,-00000.126953,00001.137695,00001.435547,00000.585938,00000.131836
0000000001378,00000.576172,00000.083008,00001.254883,00000.097656,00002.060547,00002.055664,00001.762695,00001.518555,00001.264648,00001.665039,-00004.428711,-00000.131836,00001.137695,00001.416016,00000.595703,00000.131836
0000000001379,00000.576172,00000.078125,00001.245117,00000.092773,00002.055664,00002.050781,00001.757813,00001.518555,00001.259766,00001.660156,-00004.443359,-00000.136719,00001.108398,00001.391602,00000.610352,00000.112305
0000000001380,00000.571289,00000.083008,00001.245117,00000.083008,00002.055664,00002.041016,00001.757813,00001.513672,00001.259766,00001.660156,-00004.433594,-00000.122070,00001.118164,00001.396484,00000.605469,00000.102539
0000000001381,00000.571289,00000.078125,00001.250000,00000.043945,00002.055664,00002.041016,00001.757813,00001.518555,00001.254883,00001.660156,-00004.418945,-00000.117188,00001.118164,00001.411133,00000.605469,00000.083008
0000000001382,00000.571289,00000.083008,00001.250000,00000.043945,00002.060547,00002.036133,00001.762695,00001.513672,00001.259766,00001.665039,-00004.428711,-00000.122070,00001.103516,00001.396484,00000.585938,00000.083008
0000000001383,00000.571289,00000.083008,00001.250000,00000.043945,00002.055664,00002.045898,00001.762695,00001.518555,00001.264648,00001.665039,-00004.414063,-00000.112305,00001.108398,00001.401367,00000.571289,00000.078125
0000000001384,00000.566406,00000.087891,00001.254883,00000.043945,00002.060547,00002.041016,00001.757813,00001.518555,00001.279297,00001.665039,-00004.399414,-00000.102539,00001.113281,00001.425781,00000.576172,00000.063477
0000000001385,00000.566406,00000.087891,00001.254883,00000.078125,00002.060547,00002.041016,00001.762695,00001.518555,00001.279297,00001.665039,-00004.375000,-00000.083008,00001.127930,00001.430664,00000.595703,00000.068359
0000000001386,00000.571289,00000.087891,00001.254883,00000.043945,00002.060547,00002.041016,00001.762695,00001.518555,00001.269531,00001.669922,-00004.370117,-00000.068359,00001.123047,00001.391602,00000.590820,00000.068359
0000000001387,00000.571289,00000.083008,00001.250000,00000.048828,00002.055664,00002.041016,00001.772461,00001.518555,00001.279297,00001.660156,-00004.365234,-00000.073242,00001.118164,00001.396484,00000.581055,00000.073242
0000000001388,00000.581055,00000.083008,00001.250000,00000.078125,00002.055664,00002.045898,00001.772461,00001.523438,00001.289063,00001.665039,-00004.345703,-00000.078125,00001.118164,00001.416016,00000.585938,00000.073242
0000000001389,00000.590820,00000.092773,00001.254883,00000.078125,00002.060547,00002.041016,00001.777344,00001.523438,00001.303711,00001.665039,-00004.311523,-00000.097656,00001.118164,00001.420898,00000.590820,00000.043945
0000000001390,00000.600586,00000.102539,00001.250000,00000.097656,00002.060547,00002.041016,00001.782227,00001.518555,00001.313477,00001.665039,-00004.296875,-00000.102539,00001.103516,00001.406250,00000.590820,00000.029297
0000000001391,00000.605469,00000.102539,00001.250000,00000.112305,00002.060547,00002.041016,00001.782227,00001.523438,00001.313477,00001.665039,-00004.301758,-00000.087891,00001.113281,00001.416016,00000.595703,00000.019531
0000000001392,00000.605469,00000.107422,00001.250000,00000.112305,00002.065430,00002.041016,00001.782227,00001.523438,00001.318359,00001.665039,-00004.287109,-00000.078125,00001.113281,00001.430664,00000.600586,00000.019531
0000000001393,00000.605469,00000.131836,00001.254883,00000.117188,00002.070313,00002.041016,00001.787109,00001.528320,00001.337891,00001.669922,-00004.228516,-00000.087891,00001.127930,00001.459961,00000.595703,00000.019531
0000000001394,00000.610352,00000.131836,00001.254883,00000.117188,00002.065430,00002.045898,00001.791992,00001.533203,00001.342773,00001.669922,-00004.228516,-00000.097656,00001.127930,00001.445313,00000.605469,00000.034180
0000000001395,00000.610352,00000.126953,00001.250000,00000.117188,00002.060547,00002.045898,00001.787109,00001.528320,00001.342773,00001.665039,-00004.233398,-00000.097656,00001.118164,00001.420898,00000.605469,00000.043945
0000000001396,00000.610352,00000.126953,00001.254883,00000.117188,00002.070313,00002.045898,00001.791992,00001.528320,00001.347656,00001.669922,-00004.233398,-00000.073242,00001.118164,00001.411133,00000.605469,00000.039063
0000000001397,00000.610352,00000.131836,00001.254883,00000.122070,00002.070313,00002.045898,00001.791992,00001.533203,00001.352539,00001.669922,-00004.199219,-00000.048828,00001.132813,00001.440430,00000.620117,00000.014648
0000000001398,00000.620117,00000.131836,00001.254883,00000.122070,00002.065430,00002.045898,00001.791992,00001.533203,00001.352539,00001.669922,-00004.189453,-00000.063477,00001.127930,00001.455078,00000.629883,00000.014648
0000000001399,00000.620117,00000.131836,00001.250000,00000.122070,00002.070313,00002.041016,00001.796875,00001.533203,00001.352539,00001.665039,-00004.194336,-00000.073242,00001.123047,00001.455078,00000.629883,00000.019531
0000000001400,00000.620117,00000.131836,00001.250000,00000.122070,00002.070313,00002.041016,00001.791992,00001.528320,00001.337891,00001.669922,-00004.179688,-00000.068359,00001.127930,00001.445313,00000.625000,00000.029297
0000000001401,00000.620117,00000.131836,00001.245117,00000.112305,00002.060547,00002.036133,00001.782227,00001.528320,00001.313477,00001.665039,-00004.169922,-00000.063477,00001.137695,00001.450195,00000.629883,00000.019531
0000000001402,00000.610352,00000.117188,00001.225586,00000.083008,00002.065430,00002.021484,00001.767578,00001.513672,00001.279297,00001.665039,-00004.204102,-00000.092773,00001.132813,00001.450195,00000.625000,00000.004883
0000000001403,00000.610352,00000.112305,00001.225586,00000.043945,00002.060547,00002.021484,00001.762695,00001.518555,00001.274414,00001.660156,-00004.228516,-00000.102539,00001.127930,00001.440430,00000.615234,00000.004883
0000000001404,00000.615234,00000.112305,00001.225586,00000.043945,00002.055664,00002.021484,00001.767578,00001.518555,00001.279297,00001.660156,-00004.228516,-00000.087891,00001.132813,00001.450195,00000.615234,00000.014648
0000000001405,00000.615234,00000.112305,00001.220703,00000.043945,00002.055664,00002.021484,00001.762695,00001.513672,00001.274414,00001.655273,-00004.213867,-00000.073242,00001.127930,00001.455078,00000.620117,00000.004883
0000000001406,00000.615234,00000.112305,00001.220703,00000.043945,00002.055664,00002.021484,00001.767578,00001.518555,00001.274414,00001.660156,-00004.208984,-00000.068359,00001.127930,00001.450195,00000.605469,-00000.004883
0000000001407,00000.610352,00000.117188,00001.220703,00000.043945,00002.060547,00002.016602,00001.777344,00001.513672,00001.284180,00001.660156,-00004.213867,-00000.073242,00001.123047,00001.430664,00000.600586,00000.000000
0000000001408,00000.615234,00000.112305,00001.220703,00000.078125,00002.055664,00002.016602,00001.777344,00001.513672,00001.298828,00001.655273,-00004.184570,-00000.048828,00001.123047,00001.435547,00000.595703,00000.019531
0000000001409,00000.615234,00000.117188,00001.220703,00000.097656,00002.065430,00002.016602,00001.782227,00001.518555,00001.303711,00001.660156,-00004.130859,-00000.014648,00001.127930,00001.455078,00000.600586,00000.039063
0000000001410,00000.615234,00000.117188,00001.220703,00000.107422,00002.065430,00002.021484,00001.787109,00001.518555,00001.313477,00001.660156,-00004.111328,-00000.009766,00001.123047,00001.455078,00000.605469,00000.048828
0000000001411,00000.615234,00000.122070,00001.220703,00000.112305,00002.065430,00002.016602,00001.791992,00001.518555,00001.308594,00001.660156,-00004.111328,-00000.024414,00001.118164,00001.440430,00000.600586,00000.058594
0000000001412,00000.620117,00000.122070,00001.220703,00000.112305,00002.065430,00002.016602,00001.791992,00001.518555,00001.308594,00001.660156,-00004.106445,-00000.024414,00001.113281,00001.416016,00000.590820,00000.058594
0000000001413,00000.620117,00000.122070,00001.220703,00000.112305,00002.060547,00002.021484,00001.787109,00001.523438,00001.313477,00001.660156,-00004.038086,00000.019531,00001.123047,00001.420898,00000.600586,00000.058594
0000000001414,00000.615234,00000.126953,00001.225586,00000.112305,00002.060547,00002.021484,00001.791992,00001.523438,00001.313477,00001.660156,-00003.999023,00000.043945,00001.123047,00001.420898,00000.600586,00000.068359
0000000001415,00000.620117,00000.126953,00001.225586,00000.117188,00002.065430,00002.021484,00001.796875,00001.528320,00001.337891,00001.660156,-00003.964844,00000.034180,00001.103516,00001.416016,00000.605469,00000.107422
0000000001416,00000.615234,00000.131836,00001.225586,00000.126953,00002.065430,00002.016602,00001.801758,00001.562500,00001.352539,00001.660156,-00003.930664,00000.019531,00001.098633,00001.416016,00000.610352,00000.126953
0000000001417,00000.620117,00000.141602,00001.240234,00000.126953,00002.065430,00002.016602,00001.796875,00001.567383,00001.357422,00001.660156,-00003.906250,00000.019531,00001.108398,00001.430664,00000.610352,00000.122070
0000000001418,00000.625000,00000.170898,00001.245117,00000.141602,00002.070313,00002.016602,00001.801758,00001.572266,00001.367188,00001.660156,-00003.862305,00000.004883,00001.103516,00001.430664,00000.595703,00000.112305
0000000001419,00000.629883,00000.170898,00001.250000,00000.146484,00002.075195,00002.021484,00001.801758,00001.577148,00001.367188,00001.665039,-00003.872070,-00000.004883,00001.088867,00001.411133,00000.595703,00000.107422
0000000001420,00000.629883,00000.190430,00001.245117,00000.146484,00002.075195,00002.026367,00001.801758,00001.572266,00001.372070,00001.665039,-00003.881836,00000.009766,00001.098633,00001.401367,00000.600586,00000.112305
0000000001421,00000.629883,00000.209961,00001.254883,00000.146484,00002.080078,00002.026367,00001.806641,00001.577148,00001.376953,00001.669922,-00003.852539,00000.009766,00001.098633,00001.416016,00000.600586,00000.107422
0000000001422,00000.625000,00000.209961,00001.254883,00000.146484,00002.080078,00002.026367,00001.806641,00001.577148,00001.376953,00001.669922,-00003.857422,00000.004883,00001.083984,00001.411133,00000.605469,00000.117188
0000000001423,00000.625000,00000.205078,00001.250000,00000.146484,00002.084961,00002.021484,00001.811523,00001.572266,00001.376953,00001.665039,-00003.852539,00000.000000,00001.049805,00001.391602,00000.605469,00000.136719
0000000001424,00000.625000,00000.209961,00001.250000,00000.146484,00002.084961,00002.021484,00001.816406,00001.572266,00001.381836,00001.669922,-00003.842773,00000.004883,00001.054688,00001.396484,00000.605469,00000.136719
0000000001425,00000.620117,00000.209961,00001.250000,00000.146484,00002.080078,00002.016602,00001.811523,00001.567383,00001.381836,00001.665039,-00003.789063,-00000.004883,00001.059570,00001.386719,00000.585938,00000.136719
0000000001426,00000.615234,00000.209961,00001.245117,00000.146484,00002.080078,00002.016602,00001.806641,00001.567383,00001.376953,00001.665039,-00003.774414,-00000.014648,00001.074219,00001.391602,00000.585938,00000.136719
0000000001427,00000.610352,00000.200195,00001.235352,00000.136719,00002.075195,00002.006836,00001.801758,00001.533203,00001.362305,00001.660156,-00003.793945,-00000.019531,00001.074219,00001.391602,00000.581055,00000.136719
0000000001428,00000.600586,00000.190430,00001.235352,00000.131836,00002.070313,00002.006836,00001.801758,00001.528320,00001.352539,00001.660156,-00003.774414,00000.000000,00001.069336,00001.386719,00000.576172,00000.122070
0000000001429,00000.595703,00000.195313,00001.235352,00000.131836,00002.070313,00002.001953,00001.801758,00001.523438,00001.352539,00001.660156,-00003.725586,00000.019531,00001.064453,00001.411133,00000.566406,00000.107422
0000000001430,00000.595703,00000.205078,00001.235352,00000.131836,00002.070313,00002.001953,00001.796875,00001.523438,00001.347656,00001.660156,-00003.681641,-00000.004883,00001.044922,00001.406250,00000.585938,00000.107422
0000000001431,00000.595703,00000.205078,00001.240234,00000.131836,00002.075195,00002.001953,00001.801758,00001.523438,00001.347656,00001.660156,-00003.671875,-00000.014648,00001.044922,00001.406250,00000.571289,00000.097656
0000000001432,00000.595703,00000.205078,00001.240234,00000.126953,00002.075195,00002.001953,00001.796875,00001.528320,00001.352539,00001.665039,-00003.666992,-00000.029297,00001.040039,00001.396484,00000.527344,00000.097656
0000000001433,00000.600586,00000.205078,00001.240234,00000.131836,00002.075195,00002.001953,00001.796875,00001.528320,00001.352539,00001.665039,-00003.642578,-00000.029297,00001.020508,00001.376953,00000.527344,00000.097656
0000000001434,00000.600586,00000.205078,00001.245117,00000.131836,00002.080078,00002.001953,00001.801758,00001.528320,00001.357422,00001.665039,-00003.588867,-00000.029297,00001.015625,00001.357422,00000.522461,00000.102539
0000000001435,00000.600586,00000.209961,00001.245117,00000.136719,00002.080078,00002.001953,00001.801758,00001.562500,00001.362305,00001.665039,-00003.500977,-00000.019531,00001.010742,00001.367188,00000.502930,00000.107422
0000000001436,00000.600586,00000.219727,00001.245117,00000.141602,00002.080078,00002.001953,00001.801758,00001.562500,00001.367188,00001.665039,-00003.515625,-00000.034180,00000.986328,00001.367188,00000.468750,00000.092773
0000000001437,00000.600586,00000.229492,00001.254883,00000.146484,00002.084961,00001.997070,00001.801758,00001.562500,00001.372070,00001.669922,-00003.540039,-00000.063477,00000.991211,00001.381836,00000.434570,00000.078125
0000000001438,00000.600586,00000.239258,00001.259766,00000.141602,00002.084961,00002.001953,00001.801758,00001.567383,00001.372070,00001.674805,-00003.530273,-00000.068359,00000.986328,00001.376953,00000.439453,00000.073242
0000000001439,00000.600586,00000.249023,00001.254883,00000.146484,00002.084961,00002.001953,00001.801758,00001.562500,00001.372070,00001.669922,-00003.486328,-00000.058594,00000.986328,00001.372070,00000.444336,00000.053711
0000000001440,00000.605469,00000.258789,00001.259766,00000.146484,00002.080078,00002.001953,00001.801758,00001.567383,00001.372070,00001.669922,-00003.461914,-00000.053711,00000.971680,00001.357422,00000.439453,00000.043945
0000000001441,00000.600586,00000.273438,00001.259766,00000.146484,00002.084961,00002.001953,00001.801758,00001.567383,00001.372070,00001.669922,-00003.417969,-00000.043945,00000.961914,00001.342773,00000.439453,00000.043945
0000000001442,00000.600586,00000.297852,00001.264648,00000.146484,00002.089844,00002.001953,00001.801758,00001.567383,00001.376953,00001.669922,-00003.359375,-00000.053711,00000.917969,00001.328125,00000.458984,00000.058594
0000000001443,00000.595703,00000.297852,00001.259766,00000.146484,00002.089844,00001.997070,00001.806641,00001.567383,00001.376953,00001.669922,-00003.344727,-00000.058594,00000.888672,00001.308594,00000.463867,00000.063477
0000000001444,00000.600586,00000.292969,00001.254883,00000.146484,00002.089844,00001.997070,00001.806641,00001.562500,00001.381836,00001.665039,-00003.359375,-00000.073242,00000.834961,00001.264648,00000.463867,00000.053711
0000000001445,00000.595703,00000.297852,00001.259766,00000.146484,00002.094727,00001.997070,00001.806641,00001.567383,00001.381836,00001.669922,-00003.344727,-00000.073242,00000.849609,00001.269531,00000.454102,00000.039063
0000000001446,00000.595703,00000.307617,00001.254883,00000.146484,00002.089844,00001.997070,00001.806641,00001.562500,00001.381836,00001.665039,-00003.369141,-00000.083008,00000.839844,00001.269531,00000.473633,00000.039063
0000000001447,00000.595703,00000.307617,00001.259766,00000.146484,00002.089844,00002.001953,00001.806641,00001.562500,00001.386719,00001.669922,-00003.339844,-00000.083008,00000.791016,00001.220703,00000.488281,00000.048828
0000000001448,00000.590820,00000.312500,00001.259766,00000.146484,00002.094727,00001.997070,00001.811523,00001.562500,00001.386719,00001.665039,-00003.295898,-00000.068359,00000.805664,00001.210938,00000.478516,00000.048828
0000000001449,00000.595703,00000.312500,00001.269531,00000.151367,00002.094727,00001.997070,00001.806641,00001.562500,00001.386719,00001.665039,-00003.208008,-00000.053711,00000.834961,00001.215820,00000.488281,00000.053711
0000000001450,00000.595703,00000.317383,00001.274414,00000.156250,00002.094727,00001.997070,00001.801758,00001.567383,00001.391602,00001.669922,-00003.212891,-00000.078125,00000.766602,00001.210938,00000.507813,00000.053711
0000000001451,00000.595703,00000.322266,00001.269531,00000.156250,00002.094727,00001.997070,00001.806641,00001.562500,00001.396484,00001.665039,-00003.247070,-00000.092773,00000.751953,00001.210938,00000.507813,00000.058594
0000000001452,00000.590820,00000.317383,00001.264648,00000.146484,00002.089844,00001.997070,00001.801758,00001.562500,00001.386719,00001.665039,-00003.247070,-00000.092773,00000.776367,00001.201172,00000.483398,00000.073242
0000000001453,00000.585938,00000.312500,00001.254883,00000.136719,00002.089844,00001.992188,00001.801758,00001.557617,00001.381836,00001.665039,-00003.256836,-00000.102539,00000.781250,00001.191406,00000.493164,00000.068359
0000000001454,00000.585938,00000.312500,00001.254883,00000.136719,00002.089844,00001.992188,00001.801758,00001.552734,00001.376953,00001.660156,-00003.251953,-00000.102539,00000.761719,00001.181641,00000.488281,00000.068359
0000000001455,00000.585938,00000.312500,00001.254883,00000.131836,00002.089844,00001.987305,00001.801758,00001.523438,00001.372070,00001.665039,-00003.164063,-00000.092773,00000.747070,00001.162109,00000.493164,00000.068359
0000000001456,00000.585938,00000.317383,00001.254883,00000.136719,00002.089844,00001.982422,00001.796875,00001.528320,00001.372070,00001.665039,-00003.115234,-00000.078125,00000.751953,00001.162109,00000.502930,00000.058594
0000000001457,00000.585938,00000.317383,00001.250000,00000.141602,00002.089844,00001.977539,00001.801758,00001.523438,00001.372070,00001.660156,-00003.041992,-00000.073242,00000.708008,00001.142578,00000.512695,00000.039063
0000000001458,00000.585938,00000.317383,00001.254883,00000.146484,00002.094727,00001.977539,00001.801758,00001.552734,00001.376953,00001.660156,-00003.027344,-00000.078125,00000.693359,00001.127930,00000.517578,00000.029297
0000000001459,00000.590820,00000.317383,00001.254883,00000.146484,00002.089844,00001.982422,00001.801758,00001.557617,00001.376953,00001.665039,-00003.012695,-00000.078125,00000.693359,00001.123047,00000.507813,00000.039063
0000000001460,00000.585938,00000.317383,00001.250000,00000.146484,00002.089844,00001.977539,00001.801758,00001.552734,00001.372070,00001.665039,-00002.988281,-00000.083008,00000.703125,00001.127930,00000.498047,00000.048828
0000000001461,00000.585938,00000.317383,00001.250000,00000.146484,00002.089844,00001.972656,00001.801758,00001.552734,00001.376953,00001.660156,-00002.968750,-00000.078125,00000.727539,00001.142578,00000.498047,00000.048828
0000000001462,00000.585938,00000.322266,00001.250000,00000.146484,00002.089844,00001.977539,00001.801758,00001.552734,00001.376953,00001.660156,-00002.954102,-00000.073242,00000.727539,00001.147461,00000.498047,00000.043945
0000000001463,00000.585938,00000.317383,00001.250000,00000.146484,00002.089844,00001.977539,00001.796875,00001.557617,00001.372070,00001.665039,-00002.958984,-00000.083008,00000.683594,00001.137695,00000.498047,00000.039063
0000000001464,00000.590820,00000.317383,00001.250000,00000.146484,00002.089844,00001.982422,00001.796875,00001.557617,00001.376953,00001.665039,-00002.988281,-00000.087891,00000.664063,00001.123047,00000.502930,00000.039063
0000000001465,00000.585938,00000.317383,00001.254883,00000.146484,00002.094727,00001.977539,00001.801758,00001.557617,00001.376953,00001.660156,-00003.007813,-00000.083008,00000.683594,00001.123047,00000.498047,00000.034180
0000000001466,00000.585938,00000.317383,00001.259766,00000.141602,00002.089844,00001.977539,00001.801758,00001.557617,00001.376953,00001.660156,-00003.012695,-00000.083008,00000.693359,00001.118164,00000.488281,00000.034180
0000000001467,00000.590820,00000.312500,00001.264648,00000.141602,00002.089844,00001.977539,00001.796875,00001.557617,00001.376953,00001.660156,-00002.993164,-00000.083008,00000.683594,00001.108398,00000.483398,00000.019531
0000000001468,00000.585938,00000.317383,00001.269531,00000.141602,00002.094727,00001.977539,00001.801758,00001.557617,00001.376953,00001.660156,-00002.973633,-00000.087891,00000.664063,00001.098633,00000.478516,00000.019531
0000000001469,00000.590820,00000.317383,00001.269531,00000.141602,00002.089844,00001.977539,00001.801758,00001.557617,00001.381836,00001.660156,-00002.968750,-00000.092773,00000.629883,00001.083984,00000.473633,00000.014648
0000000001470,00000.585938,00000.312500,00001.274414,00000.136719,00002.094727,00001.972656,00001.796875,00001.557617,00001.372070,00001.660156,-00002.958984,-00000.097656,00000.600586,00001.064453,00000.473633,00000.014648
0000000001471,00000.590820,00000.312500,00001.269531,00000.141602,00002.094727,00001.977539,00001.801758,00001.557617,00001.381836,00001.660156,-00002.939453,-00000.107422,00000.576172,00001.044922,00000.473633,00000.014648
0000000001472,00000.585938,00000.317383,00001.279297,00000.136719,00002.099609,00001.972656,00001.801758,00001.562500,00001.381836,00001.660156,-00002.915039,-00000.112305,00000.576172,00001.025391,00000.483398,00000.014648
0000000001473,00000.590820,00000.317383,00001.284180,00000.141602,00002.099609,00001.977539,00001.801758,00001.562500,00001.381836,00001.665039,-00002.910156,-00000.122070,00000.571289,00001.030273,00000.488281,00000.014648
0000000001474,00000.590820,00000.322266,00001.289063,00000.141602,00002.094727,00001.982422,00001.801758,00001.567383,00001.386719,00001.660156,-00002.895508,-00000.131836,00000.556641,00001.015625,00000.498047,00000.014648
0000000001475,00000.590820,00000.327148,00001.293945,00000.141602,00002.099609,00001.972656,00001.801758,00001.562500,00001.386719,00001.660156,-00002.875977,-00000.136719,00000.532227,00001.005859,00000.507813,00000.019531
0000000001476,00000.590820,00000.327148,00001.298828,00000.141602,00002.099609,00001.977539,00001.801758,00001.567383,00001.386719,00001.665039,-00002.856445,-00000.131836,00000.517578,00001.005859,00000.512695,00000.024414
0000000001477,00000.590820,00000.327148,00001.298828,00000.141602,00002.099609,00001.977539,00001.801758,00001.567383,00001.386719,00001.660156,-00002.841797,-00000.126953,00000.512695,00001.005859,00000.512695,00000.019531
0000000001478,00000.590820,00000.327148,00001.298828,00000.146484,00002.124023,00001.982422,00001.801758,00001.567383,00001.391602,00001.660156,-00002.812500,-00000.131836,00000.502930,00001.000977,00000.517578,00000.029297
0000000001479,00000.590820,00000.332031,00001.298828,00000.146484,00002.124023,00001.977539,00001.801758,00001.567383,00001.386719,00001.660156,-00002.788086,-00000.126953,00000.493164,00001.005859,00000.517578,00000.034180
