0000000001081,00002.117532,00001.621501,00002.472983,00002.460678,00002.819882,00002.937108,00002.709203,00003.139052,00002.250798,00001.901783,-00000.351640,-00000.103254,-00000.542603,-00000.002892,00000.013193,-00000.096272
0000000001082,00002.117531,00001.621390,00002.472650,00002.461312,00002.819492,00002.937434,00002.709158,00003.138835,00002.250707,00001.901023,-00000.351618,-00000.103169,-00000.542880,-00000.003046,00000.013299,-00000.095623
0000000001083,00002.117559,00001.621278,00002.472759,00002.461921,00002.819591,00002.937888,00002.709045,00003.139190,00002.250962,00001.900878,-00000.351593,-00000.103501,-00000.543184,-00000.003188,00000.013771,-00000.095017
0000000001084,00002.117922,00001.621184,00002.472839,00002.462462,00002.819622,00002.938166,00002.709007,00003.139368,00002.250884,00001.900957,-00000.351574,-00000.103428,-00000.543419,-00000.002956,00000.014224,-00000.094828
0000000001085,00002.117945,00001.621088,00002.472569,00002.462980,00002.819707,00002.938190,00002.708910,00003.139307,00002.251102,00001.900471,-00000.351916,-00000.103347,-00000.543678,-00000.003077,00000.014626,-00000.094674
0000000001086,00002.117891,00001.621371,00002.472637,00002.463077,00002.820096,00002.938064,00002.709240,00003.139458,00002.251036,00001.900174,-00000.351900,-00000.103649,-00000.543879,-00000.003242,00000.015011,-00000.094513
0000000001087,00002.118274,00001.621290,00002.472408,00002.463519,00002.820168,00002.938084,00002.708796,00003.139769,00002.250858,00001.900486,-00000.351828,-00000.103943,-00000.544099,-00000.003345,00000.014990,-00000.094382
0000000001088,00002.118228,00001.621168,00002.471740,00002.463964,00002.820136,00002.937976,00002.708714,00003.139536,00002.251165,00001.900597,-00000.351815,-00000.104199,-00000.544269,-00000.003122,00000.015319,-00000.093882
0000000001089,00002.118191,00001.621461,00002.471544,00002.464703,00002.820560,00002.937993,00002.709061,00003.139437,00002.251376,00001.900863,-00000.351754,-00000.104449,-00000.544457,-00000.003210,00000.015301,-00000.093408
0000000001090,00002.118152,00001.621720,00002.471339,00002.465808,00002.820896,00002.937539,00002.709354,00003.139238,00002.251637,00001.900594,-00000.351742,-00000.104667,-00000.544965,-00000.003384,00000.015580,-00000.093345
0000000001091,00002.118120,00001.621970,00002.471172,00002.466436,00002.821620,00002.937554,00002.709649,00003.139155,00002.251817,00001.900457,-00000.352053,-00000.104880,-00000.545125,-00000.003458,00000.015928,-00000.093305
0000000001092,00002.118449,00001.622191,00002.471360,00002.467014,00002.822269,00002.937530,00002.709899,00003.139348,00002.252039,00001.900591,-00000.352043,-00000.105066,-00000.545194,-00000.003243,00000.016166,-00000.093251
0000000001093,00002.118423,00001.622403,00002.471218,00002.467549,00002.822522,00002.937542,00002.709787,00003.139277,00002.252193,00001.900112,-00000.351945,-00000.105248,-00000.545330,-00000.002944,00000.016825,-00000.093216
0000000001094,00002.118340,00001.622228,00002.471378,00002.468041,00002.822349,00002.937522,00002.709274,00003.139442,00002.252019,00001.898412,-00000.351936,-00000.105406,-00000.545027,-00000.002761,00000.017390,-00000.093171
0000000001095,00002.118318,00001.622047,00002.471257,00002.468134,00002.821839,00002.937532,00002.708817,00003.139381,00002.251424,00001.896191,-00000.351853,-00000.105197,-00000.545142,-00000.002506,00000.017951,-00000.093141
0000000001096,00002.118247,00001.621897,00002.471393,00002.468553,00002.821692,00002.937878,00002.708742,00003.139521,00002.251276,00001.893655,-00000.351846,-00000.105332,-00000.545247,-00000.002713,00000.018069,-00000.093102
0000000001097,00002.117865,00001.621743,00002.471291,00002.468995,00002.821620,00002.937524,00002.708716,00003.139470,00002.251132,00001.891038,-00000.351775,-00000.105517,-00000.545708,-00000.002859,00000.018184,-00000.093077
0000000001098,00002.117443,00001.621253,00002.471044,00002.468988,00002.820769,00002.937455,00002.708290,00003.139226,00002.251007,00001.888517,-00000.351768,-00000.105632,-00000.546160,-00000.003398,00000.018285,-00000.093044
0000000001099,00002.117118,00001.621121,00002.470956,00002.468276,00002.820346,00002.937517,00002.707904,00003.138819,00002.250884,00001.885201,-00000.351708,-00000.105790,-00000.546553,-00000.003885,00000.018745,-00000.092660
0000000001100,00002.116395,00001.621067,00002.470746,00002.467908,00002.819984,00002.937459,00002.707905,00003.138612,00002.250777,00001.881966,-00000.351703,-00000.105887,-00000.546937,-00000.003981,00000.019194,-00000.092632
0000000001101,00002.115755,00001.620955,00002.470671,00002.467301,00002.819623,00002.937511,00002.707939,00003.138629,00002.250673,00001.879143,-00000.351651,-00000.106022,-00000.547271,-00000.004033,00000.019586,-00000.092668
0000000001102,00002.115140,00001.620909,00002.470492,00002.466988,00002.819315,00002.937098,00002.707939,00003.138452,00002.250582,00001.876389,-00000.351647,-00000.106105,-00000.547599,-00000.004115,00000.020330,-00000.092644
0000000001103,00002.114596,00001.620814,00002.470429,00002.466835,00002.819008,00002.937143,00002.707969,00003.138466,00002.250493,00001.873986,-00000.351603,-00000.106219,-00000.547521,-00000.004159,00000.021027,-00000.092674
0000000001104,00002.114435,00001.620774,00002.470277,00002.466931,00002.818746,00002.937155,00002.707969,00003.138679,00002.250052,00001.871641,-00000.351599,-00000.106290,-00000.547436,-00000.003866,00000.022024,-00000.092654
0000000001105,00002.113971,00001.620330,00002.470223,00002.467163,00002.818122,00002.937193,00002.707631,00003.139054,00002.249977,00001.869595,-00000.351562,-00000.106387,-00000.547370,-00000.003903,00000.022616,-00000.093042
0000000001106,00002.113471,00001.620297,00002.470093,00002.467244,00002.818262,00002.936840,00002.707994,00003.138872,00002.249965,00001.867600,-00000.351558,-00000.106448,-00000.547661,-00000.004017,00000.022739,-00000.093025
0000000001107,00002.113440,00001.620282,00002.470410,00002.467079,00002.818456,00002.936872,00002.708069,00003.139191,00002.249538,00001.866221,-00000.351527,-00000.106530,-00000.547967,-00000.004411,00000.022518,-00000.092630
0000000001108,00002.113014,00001.620253,00002.470299,00002.466423,00002.818575,00002.936572,00002.708016,00003.139036,00002.249527,00001.864522,-00000.351524,-00000.106582,-00000.548215,-00000.004508,00000.022260,-00000.092253
0000000001109,00002.112624,00001.620240,00002.469844,00002.466283,00002.818740,00002.936236,00002.708080,00003.138945,00002.249527,00001.863348,-00000.351497,-00000.106652,-00000.548476,-00000.004481,00000.022072,-00000.091917
0000000001110,00002.112262,00001.619853,00002.469750,00002.466087,00002.818841,00002.935980,00002.708034,00003.138813,00002.249518,00001.862265,-00000.351494,-00000.106696,-00000.548687,-00000.004563,00000.021853,-00000.091595
0000000001111,00002.111930,00001.619842,00002.469724,00002.466330,00002.818982,00002.936058,00002.708451,00003.138736,00002.249880,00001.861628,-00000.351834,-00000.106756,-00000.548909,-00000.004540,00000.021692,-00000.091309
0000000001112,00002.111622,00001.619513,00002.469644,00002.466164,00002.818343,00002.936203,00002.708412,00003.138624,00002.249510,00001.860706,-00000.352195,-00000.106793,-00000.549088,-00000.004247,00000.021868,-00000.091036
0000000001113,00002.111339,00001.619504,00002.469623,00002.466008,00002.818463,00002.936269,00002.708768,00003.138920,00002.249455,00001.860527,-00000.352121,-00000.106844,-00000.548914,-00000.003865,00000.022095,-00000.090792
0000000001114,00002.111077,00001.619586,00002.469555,00002.466229,00002.819007,00002.936392,00002.709097,00003.139188,00002.249865,00001.860104,-00000.352066,-00000.106876,-00000.548704,-00000.003616,00000.022607,-00000.090559
0000000001115,00002.110836,00001.619578,00002.469536,00002.466096,00002.819109,00002.936448,00002.709037,00003.139077,00002.249819,00001.859589,-00000.352003,-00000.106919,-00000.548919,-00000.003290,00000.022800,-00000.090352
0000000001116,00002.110613,00001.619648,00002.469478,00002.465921,00002.819209,00002.936553,00002.709317,00003.138942,00002.249806,00001.858867,-00000.351956,-00000.106946,-00000.549103,-00000.003441,00000.022511,-00000.090154
0000000001117,00002.110771,00001.619278,00002.469463,00002.465809,00002.818933,00002.936601,00002.708903,00003.139211,00002.249403,00001.858065,-00000.351902,-00000.106983,-00000.549286,-00000.003527,00000.022312,-00000.089977
0000000001118,00002.110581,00001.618975,00002.469413,00002.466023,00002.818656,00002.936691,00002.708416,00003.139096,00002.249392,00001.857813,-00000.351862,-00000.107006,-00000.549443,-00000.003655,00000.022066,-00000.089808
0000000001119,00002.110352,00001.619023,00002.469400,00002.465926,00002.818784,00002.936369,00002.708427,00003.138962,00002.249412,00001.857856,-00000.351817,-00000.107038,-00000.549598,-00000.003728,00000.021897,-00000.089658
0000000001120,00002.110553,00001.618765,00002.469721,00002.466109,00002.818910,00002.936808,00002.708375,00003.139227,00002.249402,00001.858004,-00000.351782,-00000.107057,-00000.549732,-00000.003837,00000.021324,-00000.089514
0000000001121,00002.110359,00001.618444,00002.469710,00002.466390,00002.818294,00002.936896,00002.708384,00003.139113,00002.249420,00001.858041,-00000.351744,-00000.107084,-00000.549864,-00000.003899,00000.020817,-00000.089386
0000000001122,00002.110167,00001.618224,00002.469620,00002.466182,00002.818401,00002.936544,00002.708340,00003.138976,00002.249411,00001.858530,-00000.351715,-00000.107101,-00000.549978,-00000.003992,00000.020330,-00000.089264
0000000001123,00002.109639,00001.618313,00002.469248,00002.466058,00002.818239,00002.936257,00002.708347,00003.138516,00002.249426,00001.858562,-00000.351682,-00000.107124,-00000.550091,-00000.004045,00000.020261,-00000.089155
0000000001124,00002.109476,00001.618489,00002.469171,00002.465882,00002.818331,00002.935957,00002.708310,00003.138399,00002.249419,00001.858978,-00000.351657,-00000.107138,-00000.550187,-00000.004124,00000.020209,-00000.089051
0000000001125,00002.109751,00001.618201,00002.469580,00002.465776,00002.818193,00002.936075,00002.707954,00003.138733,00002.249069,00001.859367,-00000.351629,-00000.107157,-00000.550283,-00000.004169,00000.019788,-00000.088958
0000000001126,00002.109612,00001.617988,00002.469515,00002.465626,00002.818271,00002.936183,00002.707922,00003.138996,00002.248700,00001.859722,-00000.351608,-00000.107169,-00000.550003,-00000.004236,00000.019744,-00000.088870
0000000001127,00002.109847,00001.618107,00002.469862,00002.465536,00002.818516,00002.936284,00002.707981,00003.139281,00002.248402,00001.861867,-00000.351584,-00000.107186,-00000.549722,-00000.004275,00000.019748,-00000.088791
0000000001128,00002.110092,00001.618288,00002.469807,00002.465408,00002.818220,00002.936738,00002.707591,00003.139505,00002.248088,00001.865434,-00000.351566,-00000.106833,-00000.549483,-00000.003969,00000.020073,-00000.088715
0000000001129,00002.110292,00001.618389,00002.469740,00002.466058,00002.818429,00002.937187,00002.707642,00003.139747,00002.248197,00001.868349,-00000.351183,-00000.106485,-00000.549244,-00000.003639,00000.020439,-00000.088648
0000000001130,00002.110500,00001.618180,00002.470056,00002.465949,00002.818539,00002.937211,00002.707310,00003.139938,00002.247929,00001.871022,-00000.350805,-00000.106547,-00000.549041,-00000.003379,00000.021079,-00000.088221
0000000001131,00002.110307,00001.617903,00002.469999,00002.465776,00002.818354,00002.937230,00002.706990,00003.140144,00002.247659,00001.874592,-00000.350478,-00000.106250,-00000.548837,-00000.003098,00000.022116,-00000.087801
0000000001132,00002.110122,00001.618089,00002.469905,00002.465683,00002.818448,00002.936887,00002.707070,00003.139944,00002.248157,00001.877957,-00000.350156,-00000.106304,-00000.548664,-00000.002876,00000.023023,-00000.087438
0000000001133,00002.109958,00001.618216,00002.469857,00002.465899,00002.818291,00002.937266,00002.706798,00003.139756,00002.248290,00001.880996,-00000.349879,-00000.106414,-00000.548491,-00000.002637,00000.023907,-00000.087080
0000000001134,00002.110162,00001.618373,00002.469777,00002.465820,00002.818371,00002.936975,00002.707229,00003.139586,00002.248352,00001.883860,-00000.349605,-00000.106459,-00000.548343,-00000.002449,00000.024316,-00000.087133
0000000001135,00002.110386,00001.618481,00002.469373,00002.466366,00002.818237,00002.936935,00002.707360,00003.139426,00002.248827,00001.886447,-00000.349368,-00000.106190,-00000.547833,-00000.002245,00000.024705,-00000.086829
0000000001136,00002.110560,00001.618616,00002.469305,00002.466661,00002.818305,00002.936687,00002.707364,00003.139644,00002.249242,00001.889248,-00000.349135,-00000.105866,-00000.546982,-00000.002085,00000.025054,-00000.086512
0000000001137,00002.110387,00001.618708,00002.469324,00002.466764,00002.818554,00002.936290,00002.707839,00003.139508,00002.249285,00001.891813,-00000.348571,-00000.105637,-00000.546547,-00000.001548,00000.025748,-00000.086253
0000000001138,00002.110536,00001.618822,00002.469628,00002.467015,00002.818612,00002.936441,00002.707842,00003.139693,00002.249275,00001.894198,-00000.348373,-00000.105724,-00000.546186,-00000.001049,00000.026770,-00000.086345
0000000001139,00002.110751,00001.618900,00002.470007,00002.467103,00002.818824,00002.936466,00002.707883,00003.139941,00002.249311,00001.896381,-00000.348255,-00000.105529,-00000.545816,-00000.000593,00000.027724,-00000.086487
0000000001140,00002.110878,00001.618998,00002.469541,00002.467679,00002.818147,00002.936595,00002.707886,00003.139373,00002.249303,00001.898048,-00000.347723,-00000.105240,-00000.545145,-00000.000167,00000.027869,-00000.086566
0000000001141,00002.110699,00001.619064,00002.469501,00002.467754,00002.817965,00002.936616,00002.707921,00003.139220,00002.249334,00001.899545,-00000.347261,-00000.105074,-00000.544830,00000.000221,00000.027592,-00000.086687
0000000001142,00002.110443,00001.618785,00002.469830,00002.467519,00002.817389,00002.936726,00002.707561,00003.139100,00002.248964,00001.901327,-00000.347171,-00000.104828,-00000.544622,00000.000220,00000.027352,-00000.086754
0000000001143,00002.110291,00001.618841,00002.469795,00002.467220,00002.817234,00002.936381,00002.707591,00003.138970,00002.248990,00001.902600,-00000.347140,-00000.105050,-00000.544717,00000.000188,00000.027117,-00000.086857
0000000001144,00002.110074,00001.618603,00002.469712,00002.467020,00002.816744,00002.936475,00002.707284,00003.138867,00002.248675,00001.903392,-00000.347063,-00000.104840,-00000.544540,00000.000550,00000.027276,-00000.086914
0000000001145,00002.109944,00001.618289,00002.469320,00002.467128,00002.816249,00002.936544,00002.706947,00003.138757,00002.248698,00001.904476,-00000.346674,-00000.104666,-00000.544257,00000.000886,00000.027075,-00000.087002
0000000001146,00002.109396,00001.618086,00002.468887,00002.467321,00002.815831,00002.936624,00002.707048,00003.138307,00002.248792,00001.905513,-00000.346246,-00000.104488,-00000.544107,00000.001194,00000.026848,-00000.087051
0000000001147,00002.109648,00001.617818,00002.469279,00002.467412,00002.815773,00002.937046,00002.707124,00003.138576,00002.248811,00001.906799,-00000.345914,-00000.104340,-00000.543504,00000.001480,00000.026677,-00000.087126
0000000001148,00002.109907,00001.617283,00002.469636,00002.467214,00002.815418,00002.937113,00002.706848,00003.138555,00002.248529,00001.907681,-00000.345913,-00000.104188,-00000.543375,00000.001742,00000.026484,-00000.087167
0000000001149,00002.110122,00001.617055,00002.469969,00002.466929,00002.815368,00002.937110,00002.706549,00003.138421,00002.248183,00001.908413,-00000.345994,-00000.104424,-00000.543225,00000.001985,00000.026338,-00000.087231
0000000001150,00002.109980,00001.617324,00002.469910,00002.467123,00002.815791,00002.937167,00002.706677,00003.138404,00002.248305,00001.909164,-00000.345992,-00000.104295,-00000.542753,00000.002209,00000.025811,-00000.087266
0000000001151,00002.109800,00001.617130,00002.470194,00002.466880,00002.815385,00002.937164,00002.706423,00003.138653,00002.248010,00001.910150,-00000.345698,-00000.104134,-00000.542624,00000.002416,00000.025324,-00000.087320
0000000001152,00002.109679,00001.616997,00002.469781,00002.467045,00002.815020,00002.937213,00002.706531,00003.138275,00002.248115,00001.910790,-00000.345334,-00000.104024,-00000.542222,00000.002606,00000.024512,-00000.087350
0000000001153,00002.109526,00001.616832,00002.469297,00002.466839,00002.814675,00002.936848,00002.706315,00003.137761,00002.247863,00001.911266,-00000.345084,-00000.103886,-00000.541751,00000.002782,00000.024098,-00000.087396
0000000001154,00002.109423,00001.616719,00002.469308,00002.466979,00002.814727,00002.936890,00002.706408,00003.138165,00002.247590,00001.912173,-00000.344774,-00000.103793,-00000.541408,00000.002944,00000.023769,-00000.087421
0000000001155,00002.109655,00001.616941,00002.469259,00002.467166,00002.814796,00002.937304,00002.706586,00003.138091,00002.247738,00001.912579,-00000.344561,-00000.103676,-00000.541007,00000.003094,00000.023780,-00000.087461
0000000001156,00002.109568,00001.616844,00002.469631,00002.467286,00002.815203,00002.937340,00002.706665,00003.138072,00002.247868,00001.913351,-00000.344660,-00000.103596,-00000.540715,00000.003232,00000.023863,-00000.087120
0000000001157,00002.109403,00001.617033,00002.469590,00002.467445,00002.815262,00002.937330,00002.706817,00003.138008,00002.248358,00001.913696,-00000.344841,-00000.103859,-00000.540736,00000.002997,00000.023146,-00000.086790
0000000001158,00002.109328,00001.616951,00002.469544,00002.467547,00002.815245,00002.937360,00002.706521,00003.137992,00002.248468,00001.913628,-00000.344926,-00000.103791,-00000.540851,00000.003114,00000.022491,-00000.086500
0000000001159,00002.109188,00001.617112,00002.469508,00002.467320,00002.815295,00002.936989,00002.706651,00003.137938,00002.248522,00001.913922,-00000.345080,-00000.103653,-00000.540869,00000.003277,00000.021881,-00000.086220
0000000001160,00002.109124,00001.617405,00002.469469,00002.467407,00002.815281,00002.937377,00002.706762,00003.137925,00002.248979,00001.914227,-00000.344789,-00000.103595,-00000.540604,00000.003376,00000.021686,-00000.086335
0000000001161,00002.109005,00001.617542,00002.469439,00002.467939,00002.815324,00002.937424,00002.706872,00003.137879,00002.249025,00001.914477,-00000.344558,-00000.103477,-00000.540256,00000.003878,00000.021530,-00000.086459
0000000001162,00002.109313,00001.617429,00002.469768,00002.468012,00002.815312,00002.937755,00002.706966,00003.138230,00002.249051,00001.915100,-00000.344310,-00000.103428,-00000.540030,00000.004326,00000.021364,-00000.086558
0000000001163,00002.109212,00001.617183,00002.469742,00002.467740,00002.815348,00002.937432,00002.706697,00003.138191,00002.248727,00001.915313,-00000.344113,-00000.103327,-00000.539734,00000.004390,00000.021593,-00000.086663
0000000001164,00002.109112,00001.617086,00002.470023,00002.467440,00002.815701,00002.937351,00002.706778,00003.138127,00002.248749,00001.915480,-00000.343902,-00000.103285,-00000.539542,00000.004408,00000.021815,-00000.086384
0000000001165,00002.109388,00001.616877,00002.470364,00002.467571,00002.816095,00002.937438,00002.706912,00003.138093,00002.248836,00001.915661,-00000.343734,-00000.103200,-00000.539290,00000.004462,00000.022010,-00000.086111
0000000001166,00002.109303,00001.617157,00002.470603,00002.467315,00002.816395,00002.937369,00002.706980,00003.138039,00002.248855,00001.916166,-00000.343555,-00000.103164,-00000.539127,00000.004478,00000.021836,-00000.085874
0000000001167,00002.109175,00001.617342,00002.470167,00002.467427,00002.816367,00002.937081,00002.707094,00003.138011,00002.248930,00001.916320,-00000.343775,-00000.103091,-00000.539275,00000.004524,00000.021640,-00000.085642
0000000001168,00002.109465,00001.617218,00002.470008,00002.467572,00002.816260,00002.937385,00002.706790,00003.138327,00002.248946,00001.916750,-00000.343985,-00000.103061,-00000.539499,00000.004538,00000.021492,-00000.085439
0000000001169,00002.109356,00001.617012,00002.470000,00002.467304,00002.815874,00002.937503,00002.706524,00003.138666,00002.248646,00001.916881,-00000.343809,-00000.102999,-00000.539262,00000.004577,00000.021324,-00000.085242
0000000001170,00002.109241,00001.617269,00002.469864,00002.467428,00002.815783,00002.937399,00002.706627,00003.138572,00002.248660,00001.916885,-00000.343625,-00000.102973,-00000.539090,00000.004589,00000.021561,-00000.085070
0000000001171,00002.109148,00001.617457,00002.469495,00002.467925,00002.815817,00002.937499,00002.706764,00003.138498,00002.249130,00001.916996,-00000.343476,-00000.102920,-00000.538888,00000.004622,00000.021418,-00000.085264
0000000001172,00002.109413,00001.617676,00002.469379,00002.468030,00002.815739,00002.937773,00002.706489,00003.138781,00002.249142,00001.917362,-00000.343682,-00000.102898,-00000.538742,00000.004995,00000.021257,-00000.085117
0000000001173,00002.109334,00001.617835,00002.469427,00002.468091,00002.815768,00002.937858,00002.706606,00003.138355,00002.249543,00001.917457,-00000.343918,-00000.102853,-00000.538570,00000.005023,00000.020773,-00000.084920
0000000001174,00002.109196,00001.618022,00002.469692,00002.467818,00002.816064,00002.937729,00002.706735,00003.138596,00002.249552,00001.917405,-00000.344093,-00000.102835,-00000.538445,00000.004978,00000.020636,-00000.084795
0000000001175,00002.109492,00001.618158,00002.469733,00002.468232,00002.816089,00002.938164,00002.706834,00003.138596,00002.249893,00001.917487,-00000.344294,-00000.102796,-00000.538299,00000.005002,00000.020586,-00000.084628
0000000001176,00002.109375,00001.618317,00002.469595,00002.468363,00002.815979,00002.937691,00002.706943,00003.138076,00002.250265,00001.917443,-00000.344080,-00000.102780,-00000.537830,00000.005326,00000.020832,-00000.084884
0000000001177,00002.109626,00001.618432,00002.469630,00002.468716,00002.816000,00002.938062,00002.706665,00003.138076,00002.250555,00001.917512,-00000.343888,-00000.102748,-00000.537706,00000.005346,00000.021153,-00000.085104
0000000001178,00002.109889,00001.618567,00002.469875,00002.468827,00002.816269,00002.938022,00002.706758,00003.138359,00002.250508,00001.917837,-00000.343707,-00000.102734,-00000.537669,00000.005259,00000.021363,-00000.085322
0000000001179,00002.109741,00001.618666,00002.470268,00002.468764,00002.817012,00002.938338,00002.706521,00003.138721,00002.250755,00001.917896,-00000.343543,-00000.102707,-00000.537563,00000.005640,00000.021273,-00000.085510
0000000001180,00002.109602,00001.618781,00002.470114,00002.469221,00002.817241,00002.938304,00002.706964,00003.138599,00002.251441,00001.918173,-00000.343388,-00000.102695,-00000.537532,00000.005928,00000.021088,-00000.085333
0000000001181,00002.109838,00001.618502,00002.470448,00002.469168,00002.817511,00002.938572,00002.706762,00003.138908,00002.251652,00001.918585,-00000.343249,-00000.102671,-00000.537442,00000.005890,00000.021012,-00000.085492
0000000001182,00002.109720,00001.618600,00002.470318,00002.469195,00002.818069,00002.938544,00002.707138,00003.138804,00002.251873,00001.918458,-00000.343118,-00000.102662,-00000.537416,00000.006135,00000.021580,-00000.085341
0000000001183,00002.109921,00001.618725,00002.470602,00002.469149,00002.818298,00002.938772,00002.706966,00003.139067,00002.251689,00001.918810,-00000.342999,-00000.102641,-00000.537339,00000.006465,00000.022241,-00000.085114
0000000001184,00002.109821,00001.618809,00002.470491,00002.469172,00002.818410,00002.938748,00002.707287,00003.138978,00002.252240,00001.918702,-00000.342887,-00000.102633,-00000.537316,00000.006674,00000.022362,-00000.084986
0000000001185,00002.109629,00001.618915,00002.470733,00002.469133,00002.818606,00002.938580,00002.707866,00003.138839,00002.252446,00001.918638,-00000.343149,-00000.102616,-00000.537251,00000.006592,00000.022199,-00000.084793
0000000001186,00002.109543,00001.619349,00002.471001,00002.469152,00002.818702,00002.938559,00002.708139,00003.138764,00002.252552,00001.918546,-00000.343054,-00000.102609,-00000.537232,00000.006407,00000.021939,-00000.085046
0000000001187,00002.109380,00001.619077,00002.471207,00002.468757,00002.818505,00002.938416,00002.707907,00003.138646,00002.252003,00001.918492,-00000.342914,-00000.102594,-00000.537539,00000.006337,00000.021800,-00000.084882
0000000001188,00002.109307,00001.618721,00002.471435,00002.468773,00002.818224,00002.938398,00002.707414,00003.138944,00002.251730,00001.918414,-00000.342832,-00000.102588,-00000.537523,00000.006543,00000.021579,-00000.084735
0000000001189,00002.109531,00001.618852,00002.471610,00002.468799,00002.818057,00002.938639,00002.707578,00003.139207,00002.251625,00001.918005,-00000.342713,-00000.102576,-00000.537421,00000.006846,00000.021461,-00000.084958
0000000001190,00002.109469,00001.618549,00002.471442,00002.468088,00002.817817,00002.938261,00002.707521,00003.139098,00002.251393,00001.916487,-00000.342644,-00000.102571,-00000.537770,00000.006658,00000.020910,-00000.085195
0000000001191,00002.109297,00001.618298,00002.471591,00002.467384,00002.817675,00002.938466,00002.707662,00003.139321,00002.251303,00001.915776,-00000.342543,-00000.102560,-00000.538047,00000.006554,00000.020084,-00000.085385
0000000001192,00002.109607,00001.618040,00002.471811,00002.467141,00002.817833,00002.938870,00002.707613,00003.139591,00002.251106,00001.916660,-00000.342484,-00000.102556,-00000.538344,00000.006394,00000.019615,-00000.085225
0000000001193,00002.109461,00001.618189,00002.471575,00002.467268,00002.817712,00002.938681,00002.708095,00003.139419,00002.251393,00001.916418,-00000.342398,-00000.102547,-00000.538217,00000.006668,00000.019274,-00000.085023
0000000001194,00002.108999,00001.617969,00002.471762,00002.467061,00002.817485,00002.938300,00002.708054,00003.139286,00002.251224,00001.916446,-00000.342348,-00000.102543,-00000.537744,00000.006894,00000.019237,-00000.084887
0000000001195,00002.108874,00001.618096,00002.471561,00002.466806,00002.817382,00002.937777,00002.708102,00003.139139,00002.251106,00001.916239,-00000.342637,-00000.102535,-00000.537635,00000.006764,00000.019310,-00000.085078
0000000001196,00002.108844,00001.617909,00002.471357,00002.466993,00002.817188,00002.938177,00002.708067,00003.139026,00002.250963,00001.916263,-00000.342594,-00000.102532,-00000.537233,00000.006957,00000.019279,-00000.085325
0000000001197,00002.108738,00001.618017,00002.471186,00002.467138,00002.817463,00002.938095,00002.708107,00003.138901,00002.250861,00001.916450,-00000.342478,-00000.102526,-00000.537141,00000.007210,00000.018978,-00000.085487
0000000001198,00002.108712,00001.618220,00002.471376,00002.467297,00002.817661,00002.938073,00002.708077,00003.138804,00002.250740,00001.916470,-00000.342442,-00000.102523,-00000.537161,00000.007374,00000.018589,-00000.085335
0000000001199,00002.108622,00001.618312,00002.471593,00002.467421,00002.817895,00002.937640,00002.708112,00003.138698,00002.250653,00001.916629,-00000.342343,-00000.102155,-00000.537082,00000.007589,00000.018333,-00000.085110
0000000001200,00002.108600,00001.618485,00002.471754,00002.467557,00002.817700,00002.937984,00002.707724,00003.138979,00002.250550,00001.916646,-00000.342312,-00000.102152,-00000.537462,00000.007366,00000.017639,-00000.084980
0000000001201,00002.108523,00001.618564,00002.471939,00002.467662,00002.817900,00002.937979,00002.707753,00003.138888,00002.250839,00001.916781,-00000.342227,-00000.102201,-00000.537395,00000.007186,00000.017058,-00000.084789
0000000001202,00002.108867,00001.618711,00002.472076,00002.467777,00002.817734,00002.938272,00002.707785,00003.139127,00002.250751,00001.917159,-00000.342201,-00000.102200,-00000.537356,00000.006996,00000.016830,-00000.084679
0000000001203,00002.108438,00001.618415,00002.471871,00002.467867,00002.817178,00002.938267,00002.707810,00003.138687,00002.250634,00001.917274,-00000.342129,-00000.102241,-00000.537299,00000.007206,00000.016698,-00000.084516
0000000001204,00002.108369,00001.618540,00002.471988,00002.467603,00002.817400,00002.937791,00002.707838,00003.138528,00002.250559,00001.917232,-00000.342107,-00000.102240,-00000.537266,00000.007407,00000.016867,-00000.084422
0000000001205,00002.108730,00001.618651,00002.472539,00002.467679,00002.817653,00002.938149,00002.707496,00003.138879,00002.250097,00001.917694,-00000.342045,-00000.102275,-00000.537217,00000.007585,00000.017118,-00000.084284
0000000001206,00002.109033,00001.618395,00002.472638,00002.467454,00002.817841,00002.938107,00002.707157,00003.138743,00002.250033,00001.918021,-00000.342026,-00000.102274,-00000.536826,00000.007757,00000.017261,-00000.083841
0000000001207,00002.108977,00001.618489,00002.472382,00002.467882,00002.817694,00002.938412,00002.707229,00003.139042,00002.250003,00001.918051,-00000.341974,-00000.102304,-00000.536785,00000.007909,00000.017475,-00000.083360
0000000001208,00002.108873,00001.618272,00002.472466,00002.468053,00002.817492,00002.938376,00002.706940,00003.139290,00002.249586,00001.917604,-00000.341958,-00000.102303,-00000.536814,00000.008055,00000.017597,-00000.083346
0000000001209,00002.108463,00001.618352,00002.472248,00002.468417,00002.817366,00002.938273,00002.707002,00003.139181,00002.249923,00001.917629,-00000.342277,-00000.102329,-00000.536779,00000.007821,00000.017416,-00000.083299
0000000001210,00002.108374,00001.618166,00002.472320,00002.468563,00002.817556,00002.938605,00002.707118,00003.139755,00002.250293,00001.917974,-00000.342263,-00000.102328,-00000.536805,00000.007582,00000.017520,-00000.083287
0000000001211,00002.108750,00001.617872,00002.472497,00002.468873,00002.817449,00002.938880,00002.706808,00003.140025,00002.249854,00001.918358,-00000.342171,-00000.102350,-00000.536775,00000.007746,00000.017728,-00000.082885
0000000001212,00002.108675,00001.618077,00002.472195,00002.469722,00002.817249,00002.939163,00002.706907,00003.139788,00002.249807,00001.918289,-00000.342159,-00000.102349,-00000.536796,00000.007906,00000.017817,-00000.082512
0000000001213,00002.108269,00001.617826,00002.471983,00002.469623,00002.817158,00002.939034,00002.706643,00003.139655,00002.249433,00001.918254,-00000.342444,-00000.102368,-00000.536771,00000.007683,00000.017994,-00000.082169
0000000001214,00002.108205,00001.618000,00002.472089,00002.470347,00002.817350,00002.938912,00002.707090,00003.139453,00002.249756,00001.917832,-00000.342797,-00000.102367,-00000.536789,00000.007456,00000.017707,-00000.081852
0000000001215,00002.108223,00001.617787,00002.472271,00002.470625,00002.817272,00002.939165,00002.706865,00003.139703,00002.249800,00001.918165,-00000.343039,-00000.102383,-00000.536767,00000.007266,00000.017495,-00000.081560
0000000001216,00002.108168,00001.617936,00002.472361,00002.470878,00002.817073,00002.938698,00002.706883,00003.139531,00002.249712,00001.918169,-00000.343340,-00000.102382,-00000.536783,00000.007436,00000.017251,-00000.080927
0000000001217,00002.107820,00001.617754,00002.471791,00002.471115,00002.817007,00002.938551,00002.706692,00003.139381,00002.250113,00001.917726,-00000.343546,-00000.102396,-00000.536765,00000.007637,00000.017433,-00000.080316
0000000001218,00002.108137,00001.617517,00002.471868,00002.471693,00002.816837,00002.939242,00002.706707,00003.139597,00002.250401,00001.918092,-00000.343439,-00000.102395,-00000.536778,00000.007781,00000.017588,-00000.079777
0000000001219,00002.108204,00001.617726,00002.472108,00002.471895,00002.817507,00002.939480,00002.707270,00003.139832,00002.251105,00001.918441,-00000.343614,-00000.102407,-00000.536762,00000.007952,00000.017743,-00000.079257
0000000001220,00002.108473,00001.617887,00002.472173,00002.472025,00002.817725,00002.939705,00002.706920,00003.140016,00002.251350,00001.918390,-00000.343886,-00000.102407,-00000.536773,00000.008075,00000.017512,-00000.078798
0000000001221,00002.108530,00001.618064,00002.472014,00002.472559,00002.817932,00002.939907,00002.707036,00003.140217,00002.251949,00001.918324,-00000.344036,-00000.102416,-00000.537123,00000.007858,00000.017645,-00000.078355
0000000001222,00002.108396,00001.618202,00002.471707,00002.472669,00002.818118,00002.939737,00002.707101,00003.140011,00002.252157,00001.918643,-00000.343904,-00000.102416,-00000.537495,00000.007600,00000.017810,-00000.077964
0000000001223,00002.108807,00001.618353,00002.471572,00002.473125,00002.817931,00002.939909,00002.707200,00003.139818,00002.252305,00001.918587,-00000.343668,-00000.102424,-00000.537430,00000.007778,00000.018286,-00000.077587
0000000001224,00002.108693,00001.618470,00002.471311,00002.473581,00002.818090,00002.939763,00002.707618,00003.139643,00002.252482,00001.918496,-00000.343556,-00000.102424,-00000.537384,00000.007558,00000.019153,-00000.077255
0000000001225,00002.109043,00001.618598,00002.471922,00002.474331,00002.818294,00002.940273,00002.707702,00003.140204,00002.252608,00001.918812,-00000.343356,-00000.102431,-00000.537329,00000.007710,00000.019920,-00000.076934
0000000001226,00002.108946,00001.618335,00002.472062,00002.474720,00002.818428,00002.940512,00002.707333,00003.140418,00002.252759,00001.918734,-00000.343261,-00000.102431,-00000.537290,00000.007886,00000.020295,-00000.076288
0000000001227,00002.108882,00001.618444,00002.471856,00002.475359,00002.818965,00002.940582,00002.707767,00003.140533,00002.253229,00001.919002,-00000.343090,-00000.102437,-00000.537242,00000.008015,00000.020586,-00000.076015
0000000001228,00002.108799,00001.618583,00002.471976,00002.475327,00002.819442,00002.940423,00002.707815,00003.140352,00002.253357,00001.919299,-00000.343372,-00000.102437,-00000.536846,00000.008164,00000.020543,-00000.075828
0000000001229,00002.109107,00001.618313,00002.472163,00002.475145,00002.819899,00002.940121,00002.707822,00003.140451,00002.253031,00001.919890,-00000.343589,-00000.102442,-00000.536443,00000.008274,00000.020790,-00000.075958
0000000001230,00002.109037,00001.618432,00002.471902,00002.475843,00002.820306,00002.939985,00002.708226,00003.140659,00002.253141,00001.920506,-00000.343829,-00000.102442,-00000.536469,00000.008401,00000.021116,-00000.076162
0000000001231,00002.108936,00001.618565,00002.471699,00002.476051,00002.820694,00002.939727,00002.708232,00003.140380,00002.253226,00001.921372,-00000.344014,-00000.102446,-00000.536489,00000.008132,00000.020964,-00000.076272
0000000001232,00002.108876,00001.618303,00002.471840,00002.475920,00002.820678,00002.939612,00002.707850,00003.140558,00002.252957,00001.921896,-00000.343855,-00000.102446,-00000.536510,00000.007878,00000.020878,-00000.076446
0000000001233,00002.108790,00001.618416,00002.471667,00002.476097,00002.820646,00002.939755,00002.707856,00003.140683,00002.253029,00001.922633,-00000.343650,-00000.102450,-00000.536527,00000.008011,00000.020749,-00000.076177
0000000001234,00002.109102,00001.618555,00002.471423,00002.476349,00002.820269,00002.940020,00002.707530,00003.140834,00002.253163,00001.922716,-00000.343515,-00000.102450,-00000.536546,00000.007795,00000.021039,-00000.075962
0000000001235,00002.109029,00001.618652,00002.471276,00002.476499,00002.820242,00002.940142,00002.707535,00003.140578,00002.253225,00001.922981,-00000.343340,-00000.102453,-00000.536560,00000.007545,00000.020929,-00000.076096
0000000001236,00002.108932,00001.618408,00002.471432,00002.476350,00002.819921,00002.940367,00002.707258,00003.140707,00002.252975,00001.923052,-00000.343225,-00000.102453,-00000.536576,00000.007361,00000.020450,-00000.076276
0000000001237,00002.108870,00001.618490,00002.471307,00002.476479,00002.819535,00002.940834,00002.706899,00003.140489,00002.253028,00001.922552,-00000.343077,-00000.102455,-00000.536588,00000.007149,00000.019993,-00000.076390
0000000001238,00002.108787,00001.618282,00002.471439,00002.475989,00002.819624,00002.940663,00002.706663,00003.140598,00002.252816,00001.922612,-00000.342979,-00000.102455,-00000.536601,00000.007355,00000.019949,-00000.076543
0000000001239,00002.108734,00001.617990,00002.471696,00002.475373,00002.819659,00002.940698,00002.706721,00003.140775,00002.252498,00001.922549,-00000.342852,-00000.102095,-00000.536612,00000.007537,00000.020285,-00000.077003
0000000001240,00002.108663,00001.617813,00002.471808,00002.474593,00002.819735,00002.940552,00002.706883,00003.140506,00002.252317,00001.922601,-00000.342406,-00000.101732,-00000.536261,00000.007712,00000.020973,-00000.077133
0000000001241,00002.108981,00001.617564,00002.472026,00002.474069,00002.819401,00002.940581,00002.706569,00003.140657,00002.252047,00001.922184,-00000.342298,-00000.101425,-00000.535906,00000.007868,00000.021622,-00000.077162
0000000001242,00002.108558,00001.617413,00002.471397,00002.473768,00002.819103,00002.940457,00002.706707,00003.140064,00002.252256,00001.922228,-00000.341918,-00000.101116,-00000.535970,00000.008017,00000.022571,-00000.077273
0000000001243,00002.108103,00001.617201,00002.471220,00002.473321,00002.818819,00002.940482,00002.707165,00003.139830,00002.252388,00001.922236,-00000.341827,-00000.100855,-00000.535669,00000.008149,00000.023124,-00000.077660
0000000001244,00002.108106,00001.617073,00002.471410,00002.472339,00002.818929,00002.940740,00002.706920,00003.140051,00002.252203,00001.922636,-00000.341503,-00000.100592,-00000.535723,00000.008276,00000.023568,-00000.078117
0000000001245,00002.108081,00001.616892,00002.471622,00002.471234,00002.819050,00002.940761,00002.706947,00003.140215,00002.251953,00001.924095,-00000.341063,-00000.100369,-00000.535829,00000.008388,00000.024039,-00000.078447
0000000001246,00002.108084,00001.616420,00002.471783,00002.470398,00002.818780,00002.940980,00002.706738,00003.140403,00002.251796,00001.925524,-00000.340787,-00000.100146,-00000.535513,00000.008134,00000.024054,-00000.078836
0000000001247,00002.108063,00001.616266,00002.471963,00002.469094,00002.818520,00002.940998,00002.706761,00003.140542,00002.251583,00001.927128,-00000.340412,-00000.100319,-00000.535603,00000.007867,00000.023366,-00000.079480
0000000001248,00002.108065,00001.616227,00002.472101,00002.468019,00002.818653,00002.941185,00002.706946,00003.140702,00002.251449,00001.928707,-00000.340178,-00000.100128,-00000.535696,00000.007650,00000.022291,-00000.080174
0000000001249,00002.108047,00001.615734,00002.471892,00002.467272,00002.818069,00002.941563,00002.706603,00003.140458,00002.251267,00001.930073,-00000.339858,-00000.100276,-00000.535773,00000.007422,00000.021343,-00000.080722
0000000001250,00002.108049,00001.615701,00002.471646,00002.466357,00002.817457,00002.941359,00002.706035,00003.139869,00002.251153,00001.931417,-00000.339659,-00000.100114,-00000.535853,00000.007601,00000.020790,-00000.081313
0000000001251,00002.108033,00001.615643,00002.471468,00002.465721,00002.816960,00002.941318,00002.706106,00003.139661,00002.251362,00001.932580,-00000.339387,-00000.100240,-00000.535556,00000.007770,00000.020346,-00000.081416
0000000001252,00002.107672,00001.615615,00002.471622,00002.464943,00002.817164,00002.941144,00002.706348,00003.139885,00002.251265,00001.933724,-00000.339217,-00000.100464,-00000.535623,00000.007559,00000.019513,-00000.081556
0000000001253,00002.107296,00001.615566,00002.471833,00002.463675,00002.817104,00002.940747,00002.706408,00003.139708,00002.250717,00001.934714,-00000.339348,-00000.100571,-00000.536096,00000.007340,00000.018772,-00000.082007
0000000001254,00002.106989,00001.615542,00002.471601,00002.463013,00002.816915,00002.940599,00002.706614,00003.139536,00002.250997,00001.935325,-00000.339566,-00000.100400,-00000.536516,00000.007160,00000.018062,-00000.082127
0000000001255,00002.106669,00001.615500,00002.471055,00002.462297,00002.816501,00002.940260,00002.706303,00003.139022,00002.250893,00001.935805,-00000.339315,-00000.100491,-00000.536556,00000.007337,00000.017794,-00000.082511
0000000001256,00002.106770,00001.615117,00002.470857,00002.461370,00002.815977,00002.940135,00002.705753,00003.138876,00002.250406,00001.936688,-00000.339138,-00000.100345,-00000.536551,00000.007184,00000.017553,-00000.082612
0000000001257,00002.106860,00001.615081,00002.471118,00002.460760,00002.815987,00002.940209,00002.705487,00003.138801,00002.250318,00001.936734,-00000.338925,-00000.100422,-00000.536947,00000.006972,00000.017688,-00000.082576
0000000001258,00002.106584,00001.614755,00002.470950,00002.459971,00002.815904,00002.940102,00002.705382,00003.138677,00002.250266,00001.936398,-00000.339137,-00000.100661,-00000.537306,00000.006841,00000.017845,-00000.082663
0000000001259,00002.106298,00001.614362,00002.471172,00002.459089,00002.815913,00002.939803,00002.705156,00003.138613,00002.250190,00001.936074,-00000.338955,-00000.100364,-00000.537643,00000.007023,00000.018323,-00000.082632
0000000001260,00002.106425,00001.614447,00002.471392,00002.458417,00002.816205,00002.939712,00002.705429,00003.138507,00002.250146,00001.935787,-00000.338772,-00000.100567,-00000.537585,00000.007275,00000.018820,-00000.082706
0000000001261,00002.106544,00001.614475,00002.471218,00002.458029,00002.816213,00002.939820,00002.705237,00003.138453,00002.250445,00001.935149,-00000.338618,-00000.100677,-00000.537510,00000.007430,00000.018863,-00000.083042
0000000001262,00002.106290,00001.614185,00002.471042,00002.457458,00002.816099,00002.939742,00002.705106,00003.138363,00002.250045,00001.934905,-00000.338825,-00000.100487,-00000.537461,00000.007645,00000.018924,-00000.083468
0000000001263,00002.106029,00001.614209,00002.470895,00002.457127,00002.816105,00002.939471,00002.705305,00003.138317,00002.249936,00001.934361,-00000.339056,-00000.100581,-00000.537397,00000.007776,00000.018961,-00000.083392
0000000001264,00002.106175,00001.614325,00002.471108,00002.456641,00002.816008,00002.939405,00002.705557,00003.138240,00002.249595,00001.934154,-00000.339233,-00000.100419,-00000.537355,00000.007596,00000.019012,-00000.083754
0000000001265,00002.106315,00001.614345,00002.471345,00002.456360,00002.816013,00002.939537,00002.705727,00003.138564,00002.249503,00001.934054,-00000.339429,-00000.100499,-00000.537663,00000.007346,00000.019044,-00000.084052
0000000001266,00002.106803,00001.614081,00002.471163,00002.456308,00002.815568,00002.939844,00002.705578,00003.138498,00002.249213,00001.933514,-00000.339580,-00000.100724,-00000.537990,00000.007192,00000.018724,-00000.084360
0000000001267,00002.106922,00001.614098,00002.471002,00002.456069,00002.815210,00002.940319,00002.705723,00003.138411,00002.249134,00001.932704,-00000.339747,-00000.100792,-00000.538253,00000.007342,00000.018751,-00000.084614
0000000001268,00002.107337,00001.614236,00002.471211,00002.456025,00002.815193,00002.940943,00002.705959,00003.138718,00002.249250,00001.931882,-00000.339513,-00000.100621,-00000.538168,00000.007574,00000.019568,-00000.084877
0000000001269,00002.107076,00001.614251,00002.471073,00002.455458,00002.815251,00002.940622,00002.706082,00003.138644,00002.249183,00001.931554,-00000.339292,-00000.100316,-00000.538029,00000.007701,00000.020317,-00000.085092
0000000001270,00002.106341,00001.614368,00002.470888,00002.455058,00002.815237,00002.940428,00002.706283,00003.138543,00002.249282,00001.930855,-00000.339093,-00000.100170,-00000.537957,00000.007899,00000.020649,-00000.085316
0000000001271,00002.106481,00001.614381,00002.471134,00002.454576,00002.815649,00002.940517,00002.706025,00003.138479,00002.248862,00001.930213,-00000.338905,-00000.099911,-00000.538201,00000.008007,00000.020561,-00000.085500
0000000001272,00002.106218,00001.614480,00002.470976,00002.454598,00002.815637,00002.940714,00002.705833,00003.138393,00002.248946,00001.929255,-00000.338735,-00000.100150,-00000.538140,00000.008175,00000.020481,-00000.085690
0000000001273,00002.106338,00001.614491,00002.471186,00002.454187,00002.815988,00002.940791,00002.705976,00003.138339,00002.248588,00001.929071,-00000.338575,-00000.099929,-00000.537622,00000.008268,00000.020406,-00000.086209
0000000001274,00002.106114,00001.614939,00002.471414,00002.453843,00002.816341,00002.940596,00002.706176,00003.138266,00002.248660,00001.929344,-00000.338430,-00000.099769,-00000.537570,00000.008411,00000.019975,-00000.086371
0000000001275,00002.105853,00001.614948,00002.471592,00002.453131,00002.816639,00002.941386,00002.705935,00003.138583,00002.248718,00001.929913,-00000.338657,-00000.099581,-00000.537492,00000.008489,00000.018460,-00000.086451
0000000001276,00002.105662,00001.614604,00002.471787,00002.452838,00002.816214,00002.942671,00002.705742,00003.138883,00002.248779,00001.929782,-00000.338897,-00000.099808,-00000.537811,00000.008249,00000.016642,-00000.086588
0000000001277,00002.105440,00001.614611,00002.471576,00002.452232,00002.816105,00002.942982,00002.705537,00003.138790,00002.248466,00001.929542,-00000.339090,-00000.099648,-00000.537744,00000.008315,00000.016078,-00000.086656
0000000001278,00002.105278,00001.614681,00002.471742,00002.451982,00002.816469,00002.943713,00002.705736,00003.138683,00002.248881,00001.929430,-00000.338931,-00000.099478,-00000.537653,00000.008473,00000.015981,-00000.086773
0000000001279,00002.105452,00001.614688,00002.471562,00002.452192,00002.816013,00002.943977,00002.705561,00003.138604,00002.248977,00001.929225,-00000.339096,-00000.099705,-00000.537596,00000.008530,00000.015864,-00000.086468
0000000001280,00002.105313,00001.614747,00002.471703,00002.451980,00002.815960,00002.943511,00002.705730,00003.138512,00002.248605,00001.929130,-00000.339323,-00000.099923,-00000.537518,00000.008664,00000.014693,-00000.086205
0000000001281,00002.104736,00001.614753,00002.471187,00002.451432,00002.815210,00002.942647,00002.705582,00003.138082,00002.248324,00001.928593,-00000.339463,-00000.100116,-00000.537833,00000.008713,00000.012779,-00000.085945
0000000001282,00002.104618,00001.614803,00002.471307,00002.451252,00002.814802,00002.942614,00002.705363,00003.138367,00002.248369,00001.928512,-00000.339657,-00000.100302,-00000.538129,00000.008464,00000.011057,-00000.085721
0000000001283,00002.104489,00001.614445,00002.471231,00002.450786,00002.814163,00002.942241,00002.705236,00003.138364,00002.248493,00001.928055,-00000.339776,-00000.100103,-00000.538034,00000.008506,00000.009790,-00000.085863
0000000001284,00002.104026,00001.614488,00002.470970,00002.450269,00002.813452,00002.941850,00002.705050,00003.137518,00002.248169,00001.927261,-00000.339941,-00000.100261,-00000.537924,00000.008657,00000.009050,-00000.086035
0000000001285,00002.103553,00001.614183,00002.470905,00002.449872,00002.813271,00002.941533,00002.705305,00003.137153,00002.248275,00001.926508,-00000.340042,-00000.100092,-00000.537843,00000.008692,00000.008335,-00000.086156
0000000001286,00002.103159,00001.613857,00002.470683,00002.449433,00002.812667,00002.941199,00002.704784,00003.137158,00002.247636,00001.926195,-00000.340183,-00000.099864,-00000.537749,00000.008821,00000.007342,-00000.085939
0000000001287,00002.103120,00001.613960,00002.470628,00002.449458,00002.812513,00002.940930,00002.704638,00003.136847,00002.247363,00001.925917,-00000.339906,-00000.100083,-00000.537680,00000.008851,00000.006370,-00000.086042
0000000001288,00002.102784,00001.614045,00002.470439,00002.449446,00002.812361,00002.940646,00002.704920,00003.136852,00002.247545,00001.925651,-00000.339663,-00000.099889,-00000.537600,00000.008598,00000.005887,-00000.085858
0000000001289,00002.102388,00001.614133,00002.470392,00002.449105,00002.812230,00002.940416,00002.704796,00003.136587,00002.246950,00001.925414,-00000.339428,-00000.100075,-00000.537542,00000.008260,00000.005422,-00000.085945
0000000001290,00002.102465,00001.613843,00002.470231,00002.449095,00002.811737,00002.940537,00002.704673,00003.136954,00002.246742,00001.924824,-00000.339220,-00000.099910,-00000.537474,00000.008045,00000.005012,-00000.086151
0000000001291,00002.102490,00001.613555,00002.470554,00002.448804,00002.811626,00002.940705,00002.704567,00003.137091,00002.246598,00001.924623,-00000.339020,-00000.100069,-00000.537424,00000.008120,00000.004979,-00000.085863
0000000001292,00002.102556,00001.613308,00002.470780,00002.448796,00002.811570,00002.940808,00002.704463,00003.137040,00002.246421,00001.924847,-00000.338844,-00000.099928,-00000.537366,00000.008300,00000.004629,-00000.085676
0000000001293,00002.102578,00001.613426,00002.470692,00002.449637,00002.811474,00002.940587,00002.704373,00003.136794,00002.246298,00001.924676,-00000.338673,-00000.099700,-00000.537323,00000.008364,00000.003513,-00000.085430
0000000001294,00002.102633,00001.613215,00002.470522,00002.450718,00002.811427,00002.940675,00002.704284,00003.137114,00002.246147,00001.924866,-00000.338523,-00000.099943,-00000.537274,00000.008154,00000.002127,-00000.084908
0000000001295,00002.102652,00001.613315,00002.470447,00002.452159,00002.811346,00002.940850,00002.704207,00003.137268,00002.246406,00001.925083,-00000.338378,-00000.099749,-00000.536875,00000.008209,00000.001539,-00000.084336
0000000001296,00002.102699,00001.613136,00002.470302,00002.453443,00002.810942,00002.940562,00002.703768,00003.136814,00002.246278,00001.924882,-00000.338250,-00000.099956,-00000.536470,00000.008393,00000.001448,-00000.083891
0000000001297,00002.102715,00001.613222,00002.470238,00002.454670,00002.811236,00002.940711,00002.704066,00003.136945,00002.246498,00001.925067,-00000.338127,-00000.099791,-00000.536131,00000.008076,00000.000948,-00000.083405
0000000001298,00002.102756,00001.613069,00002.470477,00002.455762,00002.811618,00002.940466,00002.703693,00003.136922,00002.246389,00001.925258,-00000.338018,-00000.099967,-00000.536149,00000.008233,00000.000144,-00000.082663
0000000001299,00002.102406,00001.612779,00002.470423,00002.456807,00002.811506,00002.940230,00002.703583,00003.137033,00002.246576,00001.925053,-00000.337913,-00000.099827,-00000.536222,00000.007964,-00000.000644,-00000.081523
0000000001300,00002.102441,00001.613012,00002.470264,00002.457737,00002.811831,00002.940022,00002.703628,00003.136651,00002.246846,00001.924853,-00000.337820,-00000.099977,-00000.536238,00000.007734,-00000.001328,-00000.080167
0000000001301,00002.102506,00001.613128,00002.470580,00002.458263,00002.811735,00002.939821,00002.703172,00003.136745,00002.246642,00001.925041,-00000.337730,-00000.099857,-00000.536301,00000.007505,-00000.002000,-00000.078833
0000000001302,00002.102535,00001.613326,00002.470082,00002.459055,00002.811286,00002.939643,00002.702848,00003.136420,00002.246872,00001.924871,-00000.337652,-00000.099985,-00000.536314,00000.007310,-00000.002582,-00000.077679
0000000001303,00002.102228,00001.613424,00002.469626,00002.459866,00002.811205,00002.939472,00002.702822,00003.136137,00002.247062,00001.925031,-00000.337575,-00000.099883,-00000.536367,00000.007115,-00000.003154,-00000.076544
0000000001304,00002.102253,00001.613593,00002.469564,00002.460540,00002.811548,00002.939684,00002.702909,00003.136586,00002.246894,00001.925249,-00000.337508,-00000.099629,-00000.536378,00000.006948,-00000.002924,-00000.075560
0000000001305,00002.101991,00001.613677,00002.469539,00002.460868,00002.811116,00002.939538,00002.702524,00003.136345,00002.246693,00001.925023,-00000.337443,-00000.099542,-00000.536061,00000.007145,-00000.002322,-00000.074231
0000000001306,00002.101650,00001.613821,00002.469487,00002.461441,00002.811046,00002.939355,00002.702961,00003.136364,00002.246914,00001.925208,-00000.337749,-00000.099326,-00000.535345,00000.007366,-00000.001763,-00000.073032
0000000001307,00002.101427,00001.613530,00002.469102,00002.462083,00002.810678,00002.939232,00002.702634,00003.136160,00002.246742,00001.924653,-00000.338057,-00000.099252,-00000.535075,00000.007534,-00000.000888,-00000.071900
0000000001308,00002.101499,00001.613652,00002.469058,00002.463297,00002.810618,00002.939439,00002.702642,00003.136176,00002.246930,00001.924448,-00000.338317,-00000.099068,-00000.534828,00000.007722,-00000.000050,-00000.070879
0000000001309,00002.101673,00001.613767,00002.469456,00002.464206,00002.810668,00002.939696,00002.702727,00003.136365,00002.246784,00001.924338,-00000.338579,-00000.099005,-00000.534598,00000.007865,00000.000332,-00000.069553
0000000001310,00002.101371,00001.613871,00002.469418,00002.464514,00002.810979,00002.939510,00002.702734,00003.136016,00002.246944,00001.924163,-00000.338800,-00000.098848,-00000.534751,00000.008025,00000.000683,-00000.068683
0000000001311,00002.101156,00001.613968,00002.469394,00002.464925,00002.811384,00002.939366,00002.702806,00003.135813,00002.247182,00001.924070,-00000.339023,-00000.098794,-00000.534918,00000.008146,00000.001371,-00000.067917
0000000001312,00002.101262,00001.614057,00002.469362,00002.465187,00002.811287,00002.938845,00002.702812,00003.135516,00002.246956,00001.923558,-00000.339211,-00000.098661,-00000.535048,00000.008283,00000.002395,-00000.066814
0000000001313,00002.101804,00001.614140,00002.469705,00002.465900,00002.811269,00002.939085,00002.702873,00003.135707,00002.246796,00001.923478,-00000.339401,-00000.098615,-00000.535190,00000.008386,00000.002981,-00000.065437
0000000001314,00002.101895,00001.613853,00002.470040,00002.466486,00002.811186,00002.939367,00002.702516,00003.135817,00002.246603,00001.923406,-00000.339562,-00000.098502,-00000.534938,00000.008502,00000.003490,-00000.064135
0000000001315,00002.101993,00001.613924,00002.470332,00002.467093,00002.811896,00002.939209,00002.702931,00003.135979,00002.246830,00001.923338,-00000.339723,-00000.098463,-00000.534696,00000.008590,00000.003989,-00000.063325
0000000001316,00002.101708,00001.614042,00002.469892,00002.467229,00002.811826,00002.938723,00002.702989,00003.135347,00002.246665,00001.923276,-00000.339860,-00000.098366,-00000.534481,00000.008689,00000.004785,-00000.062217
0000000001317,00002.101792,00001.614102,00002.470140,00002.467383,00002.812430,00002.938588,00002.702979,00003.135485,00002.246858,00001.923581,-00000.339997,-00000.098333,-00000.534638,00000.008401,00000.005210,-00000.061527
0000000001318,00002.101911,00001.614203,00002.469765,00002.467136,00002.812370,00002.938175,00002.703029,00003.135310,00002.247081,00001.923892,-00000.340114,-00000.098614,-00000.534819,00000.008123,00000.004799,-00000.060584
0000000001319,00002.102346,00001.614254,00002.469977,00002.467629,00002.812885,00002.938423,00002.703021,00003.135790,00002.247246,00001.924514,-00000.340231,-00000.098586,-00000.535315,00000.007878,00000.004798,-00000.059634
0000000001320,00002.102447,00001.614703,00002.470020,00002.468507,00002.813560,00002.938796,00002.703426,00003.136004,00002.247435,00001.924415,-00000.340330,-00000.098462,-00000.535468,00000.008003,00000.005174,-00000.058468
0000000001321,00002.102454,00001.614746,00002.469837,00002.468565,00002.813635,00002.938282,00002.703419,00003.135687,00002.247575,00001.924582,-00000.340430,-00000.098438,-00000.535165,00000.008157,00000.005536,-00000.057297
0000000001322,00002.102904,00001.614765,00002.469875,00002.468950,00002.813846,00002.939689,00002.703039,00003.135869,00002.247737,00001.924861,-00000.340877,-00000.098332,-00000.534933,00000.008264,00000.005493,-00000.056304
0000000001323,00002.102910,00001.614803,00002.469356,00002.469361,00002.813911,00002.940339,00002.703033,00003.135599,00002.247856,00001.924641,-00000.341324,-00000.098312,-00000.535038,00000.008396,00000.005438,-00000.055307
0000000001324,00002.102930,00001.614819,00002.469025,00002.469689,00002.814091,00002.941174,00002.703071,00003.135391,00002.247994,00001.924515,-00000.341705,-00000.098222,-00000.534840,00000.008487,00000.005765,-00000.054462
0000000001325,00002.102935,00001.614488,00002.468947,00002.470039,00002.813782,00002.941365,00002.702703,00003.135162,00002.248095,00001.923965,-00000.342086,-00000.098204,-00000.534567,00000.008598,00000.006443,-00000.053613
0000000001326,00002.102589,00001.614501,00002.469391,00002.469955,00002.813936,00002.940987,00002.703099,00003.135348,00002.248212,00001.923858,-00000.342410,-00000.098128,-00000.534398,00000.008676,00000.007084,-00000.053257
0000000001327,00002.102593,00001.614219,00002.469686,00002.469891,00002.814036,00002.941149,00002.703149,00003.135515,00002.247936,00001.923752,-00000.342734,-00000.097750,-00000.534165,00000.008771,00000.008025,-00000.053259
0000000001328,00002.102661,00001.613868,00002.469701,00002.469820,00002.813804,00002.941190,00002.703123,00003.135673,00002.248035,00001.923661,-00000.342647,-00000.097685,-00000.534022,00000.008837,00000.008570,-00000.052956
0000000001329,00002.102665,00001.613628,00002.470316,00002.469765,00002.813889,00002.941329,00002.703165,00003.136179,00002.247800,00001.923571,-00000.342561,-00000.097727,-00000.533824,00000.008918,00000.009008,-00000.052596
0000000001330,00002.102723,00001.613329,00002.470329,00002.469704,00002.813329,00002.941364,00002.703143,00003.136313,00002.247522,00001.921317,-00000.342487,-00000.097671,-00000.533702,00000.008974,00000.009473,-00000.052337
0000000001331,00002.102363,00001.613488,00002.470489,00002.469657,00002.813039,00002.941119,00002.703179,00003.136381,00002.247322,00001.917975,-00000.342413,-00000.097706,-00000.533533,00000.009043,00000.010208,-00000.052393
0000000001332,00002.102050,00001.613234,00002.470500,00002.469605,00002.812561,00002.940423,00002.702798,00003.136132,00002.246722,00001.914242,-00000.342350,-00000.097659,-00000.533792,00000.009091,00000.010966,-00000.052536
0000000001333,00002.102107,00001.613368,00002.470637,00002.469566,00002.812677,00002.940214,00002.703554,00003.136190,00002.246914,00001.911034,-00000.341924,-00000.097689,-00000.534011,00000.009149,00000.011955,-00000.052947
0000000001334,00002.101840,00001.613152,00002.470283,00002.469159,00002.812271,00002.939622,00002.703229,00003.135616,00002.246767,00001.908219,-00000.341508,-00000.097649,-00000.533869,00000.009190,00000.012964,-00000.053068
0000000001335,00002.101888,00001.612904,00002.470400,00002.469125,00002.812007,00002.939807,00002.703147,00003.136027,00002.246568,00001.906214,-00000.341146,-00000.097675,-00000.533693,00000.009240,00000.013443,-00000.053055
0000000001336,00002.101661,00001.612720,00002.470462,00002.469141,00002.812024,00002.939666,00002.703233,00003.135901,00002.246805,00001.904180,-00000.340791,-00000.097640,-00000.533571,00000.009275,00000.013938,-00000.053158
0000000001337,00002.101339,00001.612508,00002.470561,00002.468750,00002.811799,00002.939461,00002.702801,00003.135889,00002.246635,00001.902111,-00000.340483,-00000.097662,-00000.533784,00000.009317,00000.014346,-00000.052784
0000000001338,00002.101509,00001.612351,00002.470976,00002.468764,00002.812539,00002.939340,00002.702874,00003.136145,00002.246475,00001.902556,-00000.340544,-00000.097633,-00000.533681,00000.009347,00000.014768,-00000.052872
0000000001339,00002.101598,00001.612172,00002.471060,00002.468430,00002.812347,00002.939165,00002.702506,00003.136134,00002.246330,00001.903696,-00000.340644,-00000.097651,-00000.533499,00000.009383,00000.014390,-00000.052917
0000000001340,00002.101742,00001.612038,00002.471051,00002.468442,00002.811889,00002.939426,00002.702206,00003.136352,00002.246556,00001.904801,-00000.340696,-00000.097627,-00000.533774,00000.009408,00000.013660,-00000.052992
0000000001341,00002.101455,00001.611885,00002.470760,00002.468884,00002.811363,00002.938914,00002.702255,00003.135617,00002.246796,00001.905772,-00000.340781,-00000.097642,-00000.533982,00000.009439,00000.012613,-00000.053029
0000000001342,00002.101578,00001.611771,00002.471115,00002.469620,00002.811699,00002.939136,00002.702363,00003.135802,00002.246626,00001.907075,-00000.341188,-00000.097621,-00000.534217,00000.009097,00000.011266,-00000.053093
0000000001343,00002.101333,00001.611641,00002.470867,00002.469633,00002.811977,00002.938700,00002.702405,00003.135903,00002.246467,00001.908265,-00000.341261,-00000.097635,-00000.534394,00000.008761,00000.010012,-00000.052763
0000000001344,00002.101075,00001.611544,00002.470807,00002.469897,00002.811899,00002.938889,00002.702496,00003.135697,00002.246685,00001.909374,-00000.341245,-00000.097979,-00000.534593,00000.008470,00000.008865,-00000.052817
0000000001345,00002.101230,00001.611796,00002.470596,00002.470271,00002.812136,00002.938881,00002.702894,00003.135783,00002.246913,00001.910024,-00000.341306,-00000.097991,-00000.534744,00000.008547,00000.008523,-00000.052898
0000000001346,00002.101010,00001.612077,00002.470907,00002.470132,00002.812433,00002.938316,00002.702972,00003.135608,00002.246735,00001.910605,-00000.341293,-00000.097922,-00000.534913,00000.008662,00000.007910,-00000.052945
0000000001347,00002.100779,00001.612291,00002.470728,00002.470088,00002.812272,00002.938310,00002.702949,00003.135318,00002.246929,00001.911521,-00000.340982,-00000.097931,-00000.534679,00000.008364,00000.006893,-00000.053014
0000000001348,00002.100592,00001.612167,00002.470630,00002.469970,00002.812525,00002.938191,00002.703015,00003.135532,00002.246778,00001.912379,-00000.340608,-00000.097872,-00000.534461,00000.008462,00000.006008,-00000.053053
0000000001349,00002.100758,00001.611987,00002.470840,00002.470295,00002.812387,00002.938548,00002.702995,00003.135648,00002.246580,00001.913159,-00000.340344,-00000.097881,-00000.534261,00000.008571,00000.005142,-00000.053475
0000000001350,00002.100961,00001.611881,00002.471119,00002.470195,00002.812602,00002.938448,00002.703051,00003.135830,00002.246451,00001.913889,-00000.340025,-00000.097831,-00000.534075,00000.008655,00000.004389,-00000.053871
0000000001351,00002.101103,00001.611728,00002.471298,00002.470472,00002.812848,00002.939115,00002.703034,00003.136292,00002.246283,00001.914553,-00000.339800,-00000.097838,-00000.533905,00000.008748,00000.003652,-00000.053867
0000000001352,00002.100913,00001.611638,00002.471173,00002.470749,00002.812669,00002.939029,00002.703082,00003.136084,00002.246174,00001.914449,-00000.339891,-00000.097795,-00000.534110,00000.008456,00000.003011,-00000.054205
0000000001353,00002.100671,00001.611870,00002.471325,00002.470622,00002.813241,00002.938871,00002.703430,00003.136114,00002.246393,00001.915014,-00000.339700,-00000.097801,-00000.534328,00000.008173,00000.002383,-00000.054202
0000000001354,00002.100872,00001.612156,00002.471582,00002.470132,00002.813814,00002.938798,00002.703471,00003.136300,00002.246300,00001.915652,-00000.339415,-00000.097764,-00000.534502,00000.007925,00000.001475,-00000.054126
0000000001355,00002.100666,00001.611628,00002.471711,00002.470024,00002.813575,00002.938664,00002.703042,00003.136326,00002.246124,00001.915770,-00000.339615,-00000.097770,-00000.534325,00000.007683,00000.000941,-00000.054123
0000000001356,00002.100837,00001.611509,00002.471930,00002.469970,00002.813700,00002.938964,00002.702714,00003.136847,00002.246045,00001.916312,-00000.339372,-00000.097739,-00000.534111,00000.007472,00000.000167,-00000.054422
0000000001357,00002.100661,00001.611423,00002.471677,00002.470241,00002.813497,00002.938850,00002.702712,00003.136506,00002.246258,00001.916413,-00000.339542,-00000.097743,-00000.533960,00000.007266,-00000.000650,-00000.054782
0000000001358,00002.100445,00001.611321,00002.471500,00002.470920,00002.813603,00002.938743,00002.703158,00003.136587,00002.246553,00001.916512,-00000.339699,-00000.097354,-00000.533777,00000.007086,-00000.001672,-00000.055036
0000000001359,00002.100295,00001.611610,00002.471285,00002.471514,00002.813793,00002.938646,00002.703156,00003.136659,00002.246734,00001.916598,-00000.339843,-00000.097357,-00000.533286,00000.007274,-00000.003093,-00000.055343
0000000001360,00002.100473,00001.611524,00002.471497,00002.472092,00002.813883,00002.938555,00002.703173,00003.136728,00002.246623,00001.917045,-00000.340339,-00000.097026,-00000.532768,00000.007484,-00000.004325,-00000.055197
0000000001361,00002.100709,00001.611770,00002.471314,00002.473323,00002.814045,00002.938472,00002.703534,00003.136427,00002.246777,00001.917118,-00000.340825,-00000.097029,-00000.532350,00000.007281,-00000.005536,-00000.055095
0000000001362,00002.100498,00001.612059,00002.471132,00002.474541,00002.814485,00002.938032,00002.703548,00003.136123,00002.247045,00001.917135,-00000.341247,-00000.097110,-00000.531909,00000.007096,-00000.006585,-00000.054970
0000000001363,00002.100698,00001.611906,00002.471339,00002.475588,00002.815348,00002.937961,00002.703493,00003.136592,00002.247177,00001.917560,-00000.341661,-00000.096750,-00000.531553,00000.006924,-00000.007978,-00000.054521
0000000001364,00002.100881,00001.611789,00002.471547,00002.476625,00002.815722,00002.938312,00002.703143,00003.136696,00002.247405,00001.917938,-00000.342020,-00000.096819,-00000.531177,00000.006767,-00000.009596,-00000.054415
0000000001365,00002.101052,00001.612022,00002.471723,00002.477154,00002.816820,00002.937889,00002.703458,00003.136733,00002.247879,00001.918663,-00000.342010,-00000.096875,-00000.531237,00000.006257,-00000.011145,-00000.054032
0000000001366,00002.101208,00001.612648,00002.471537,00002.478037,00002.817501,00002.937825,00002.703886,00003.136821,00002.248436,00001.918984,-00000.342316,-00000.096934,-00000.531280,00000.005761,-00000.012523,-00000.053579
0000000001367,00002.101353,00001.612483,00002.471687,00002.478850,00002.817710,00002.937828,00002.703429,00003.136852,00002.248478,00001.919238,-00000.342670,-00000.097344,-00000.531331,00000.005327,-00000.013478,-00000.052891
0000000001368,00002.101486,00001.612653,00002.471892,00002.479239,00002.818290,00002.937773,00002.703430,00003.136927,00002.248589,00001.919512,-00000.343293,-00000.097757,-00000.531005,00000.004904,-00000.014289,-00000.052505
0000000001369,00002.101972,00001.612876,00002.471657,00002.480294,00002.818831,00002.938501,00002.703766,00003.137317,00002.248987,00001.919728,-00000.344682,-00000.097744,-00000.529960,00000.004897,-00000.015465,-00000.052282
0000000001370,00002.102085,00001.613021,00002.471831,00002.480625,00002.819688,00002.938454,00002.703767,00003.137744,00002.249082,00001.919962,-00000.347753,-00000.097369,-00000.528594,00000.004900,-00000.017606,-00000.051953
0000000001371,00002.101774,00001.613573,00002.471268,00002.480798,00002.820511,00002.937986,00002.703691,00003.137350,00002.249058,00001.919783,-00000.351838,-00000.097358,-00000.526253,00000.005257,-00000.020421,-00000.052489
0000000001372,00002.101507,00001.614059,00002.471053,00002.481079,00002.821603,00002.937946,00002.704054,00003.137713,00002.249138,00001.917079,-00000.356265,-00000.097765,-00000.524364,00000.005260,-00000.022969,-00000.053298
0000000001373,00002.101242,00001.614529,00002.470574,00002.481589,00002.822303,00002.937910,00002.704352,00003.138103,00002.249118,00001.913662,-00000.360106,-00000.098118,-00000.522734,00000.005201,-00000.025366,-00000.054116
0000000001374,00002.101378,00001.614943,00002.470391,00002.482192,00002.822870,00002.938239,00002.704299,00003.138412,00002.249187,00001.910634,-00000.363150,-00000.098465,-00000.521489,00000.005566,-00000.027172,-00000.054805
0000000001375,00002.101152,00001.615343,00002.470346,00002.482626,00002.823467,00002.937846,00002.704552,00003.138382,00002.249169,00001.906637,-00000.365331,-00000.098765,-00000.520827,00000.005153,-00000.028487,-00000.054776
0000000001376,00002.100542,00001.615333,00002.470190,00002.482776,00002.823949,00002.937037,00002.704870,00003.138645,00002.249228,00001.901883,-00000.366833,-00000.099060,-00000.520856,00000.004376,-00000.030025,-00000.054274
0000000001377,00002.100350,00001.615311,00002.470152,00002.482782,00002.824457,00002.936702,00002.705086,00003.138982,00002.249213,00001.897029,-00000.367965,-00000.099679,-00000.521381,00000.003299,-00000.031507,-00000.053524
0000000001378,00002.100193,00001.615302,00002.470020,00002.483636,00002.824868,00002.936740,00002.705356,00003.139206,00002.249263,00001.892619,-00000.368881,-00000.100293,-00000.521768,00000.002274,-00000.032816,-00000.052734
0000000001379,00002.099667,00001.615646,00002.470350,00002.484367,00002.825300,00002.936455,00002.705540,00003.139492,00002.249250,00001.888486,-00000.369481,-00000.100457,-00000.522215,00000.001357,-00000.034078,-00000.052458
0000000001380,00002.099171,00001.615638,00002.470237,00002.485456,00002.825650,00002.935761,00002.705770,00003.139683,00002.249292,00001.884732,-00000.369536,-00000.100617,-00000.522182,00000.000485,-00000.034829,-00000.052148
0000000001381,00002.099086,00001.615931,00002.470518,00002.486805,00002.826018,00002.935518,00002.705926,00003.139927,00002.249644,00001.881214,-00000.369684,-00000.100756,-00000.522562,00000.000067,-00000.035541,-00000.051551
0000000001382,00002.098663,00001.615924,00002.470422,00002.488095,00002.825953,00002.934928,00002.705759,00003.139727,00002.249681,00001.878019,-00000.369730,-00000.101255,-00000.522897,-00000.000313,-00000.036181,-00000.050924
0000000001383,00002.098591,00001.615811,00002.470661,00002.489605,00002.826629,00002.934721,00002.706255,00003.139935,00002.249980,00001.875749,-00000.369856,-00000.101737,-00000.523220,-00000.000669,-00000.036786,-00000.050415
0000000001384,00002.098594,00001.615805,00002.470942,00002.491429,00002.826936,00002.934944,00002.706476,00003.140852,00002.250374,00001.874480,-00000.369896,-00000.101799,-00000.523142,-00000.000992,-00000.037694,-00000.050245
0000000001385,00002.098169,00001.616072,00002.470783,00002.493440,00002.827149,00002.934768,00002.706535,00003.141029,00002.250629,00001.872911,-00000.370366,-00000.101846,-00000.523055,-00000.001658,-00000.038935,-00000.049812
0000000001386,00002.098172,00001.616067,00002.471023,00002.494993,00002.827411,00002.934958,00002.706360,00003.141811,00002.250964,00001.870742,-00000.371125,-00000.101898,-00000.523352,-00000.003021,-00000.040796,-00000.048941
0000000001387,00002.098536,00001.616293,00002.471613,00002.496343,00002.827955,00002.935171,00002.706411,00003.142687,00002.251181,00001.868318,-00000.372614,-00000.101939,-00000.523640,-00000.004313,-00000.042578,-00000.048209
0000000001388,00002.098539,00001.616652,00002.471454,00002.498027,00002.828540,00002.934969,00002.706987,00003.142989,00002.251829,00001.866108,-00000.374349,-00000.101983,-00000.523530,-00000.005112,-00000.043799,-00000.047831
0000000001389,00002.098486,00001.617208,00002.471593,00002.499539,00002.829366,00002.934788,00002.707030,00003.143372,00002.252014,00001.864408,-00000.376341,-00000.101655,-00000.522687,-00000.005849,-00000.044953,-00000.047934
0000000001390,00002.098488,00001.617513,00002.472183,00002.501698,00002.830227,00002.934617,00002.707159,00003.144355,00002.252203,00001.863252,-00000.378544,-00000.101693,-00000.521867,-00000.006165,-00000.045630,-00000.048337
0000000001391,00002.098806,00001.618349,00002.471939,00002.503711,00002.831656,00002.934825,00002.707195,00003.145770,00002.252723,00001.861442,-00000.382054,-00000.102139,-00000.521513,-00000.006793,-00000.046976,-00000.048787
0000000001392,00002.098808,00001.619698,00002.471353,00002.505187,00002.833840,00002.934316,00002.707667,00003.146606,00002.253609,00001.859733,-00000.387194,-00000.102897,-00000.520452,-00000.007425,-00000.049003,-00000.049494
0000000001393,00002.099078,00001.620772,00002.470783,00002.506174,00002.836145,00002.934494,00002.707698,00003.148536,00002.254415,00001.858191,-00000.392360,-00000.103639,-00000.519425,-00000.007597,-00000.051600,-00000.050240
0000000001394,00002.099080,00001.622645,00002.470284,00002.506705,00002.838730,00002.934423,00002.708100,00003.149974,00002.255169,00001.856736,-00000.398186,-00000.104647,-00000.518522,-00000.008135,-00000.054777,-00000.050478
0000000001395,00002.098947,00001.625011,00002.469073,00002.507183,00002.841055,00002.934212,00002.708489,00003.151254,00002.255855,00001.854698,-00000.405486,-00000.106005,-00000.517647,-00000.008644,-00000.058076,-00000.051113
0000000001396,00002.098948,00001.627695,00002.467922,00002.507272,00002.843255,00002.934515,00002.709194,00003.152478,00002.256860,00001.852734,-00000.414800,-00000.107226,-00000.516516,-00000.008739,-00000.061506,-00000.052042
0000000001397,00002.099199,00001.630797,00002.466891,00002.506953,00002.845960,00002.934697,00002.709526,00003.153931,00002.257444,00001.851362,-00000.427907,-00000.108382,-00000.514320,-00000.008084,-00000.065403,-00000.052945
0000000001398,00002.099200,00001.634170,00002.465187,00002.506666,00002.848196,00002.934955,00002.709400,00003.155336,00002.257937,00001.850053,-00000.443092,-00000.109421,-00000.511906,-00000.007440,-00000.070137,-00000.053736
0000000001399,00002.098687,00001.637536,00002.463946,00002.506032,00002.850499,00002.934748,00002.710045,00003.156209,00002.258797,00001.848522,-00000.458966,-00000.110768,-00000.510036,-00000.006882,-00000.074906,-00000.054142
0000000001400,00002.098325,00001.640770,00002.462857,00002.505425,00002.852402,00002.934604,00002.709938,00003.157405,00002.259217,00001.846682,-00000.475884,-00000.112015,-00000.508344,-00000.005971,-00000.079299,-00000.053001
0000000001401,00002.097526,00001.645087,00002.461439,00002.504159,00002.854362,00002.934428,00002.710124,00003.158512,00002.259586,00001.845016,-00000.494477,-00000.113525,-00000.506753,-00000.005496,-00000.083721,-00000.051170
0000000001402,00002.097580,00001.649654,00002.460149,00002.503643,00002.856709,00002.934669,00002.710759,00003.159893,00002.259943,00001.843450,-00000.513595,-00000.115312,-00000.504949,-00000.004720,-00000.088186,-00000.049473
0000000001403,00002.096900,00001.654781,00002.458578,00002.502203,00002.858740,00002.934518,00002.710917,00003.161923,00002.259894,00001.841669,-00000.534139,-00000.117686,-00000.503594,-00000.005041,-00000.091951,-00000.047552
0000000001404,00002.096584,00001.660120,00002.457118,00002.499586,00002.860737,00002.934361,00002.711095,00003.163824,00002.259836,00001.839609,-00000.555494,-00000.120659,-00000.503147,-00000.005832,-00000.095752,-00000.045382
0000000001405,00002.096367,00001.666298,00002.454692,00002.495820,00002.862104,00002.934595,00002.711230,00003.165553,00002.259794,00001.837005,-00000.578788,-00000.123767,-00000.502357,-00000.007194,-00000.099320,-00000.043021
0000000001406,00002.096098,00001.674108,00002.450184,00002.489239,00002.864167,00002.934824,00002.711381,00003.167171,00002.259744,00001.834526,-00000.607488,-00000.127749,-00000.501613,-00000.008230,-00000.102918,-00000.041173
0000000001407,00002.095551,00001.681544,00002.444854,00002.481680,00002.865693,00002.935024,00002.711496,00003.168280,00002.259346,00001.831946,-00000.637114,-00000.131484,-00000.499852,-00000.008664,-00000.106318,-00000.039163
0000000001408,00002.094959,00001.688919,00002.439928,00002.473901,00002.867449,00002.934855,00002.711624,00003.169658,00002.258941,00001.828748,-00000.667714,-00000.134874,-00000.497405,-00000.008457,-00000.109382,-00000.037227
0000000001409,00002.094131,00001.696337,00002.435027,00002.466740,00002.869111,00002.934663,00002.711722,00003.170964,00002.257877,00001.825100,-00000.699464,-00000.137691,-00000.495543,-00000.008827,-00000.112276,-00000.035153
0000000001410,00002.092901,00001.703341,00002.430108,00002.459392,00002.870607,00002.934882,00002.711469,00003.172137,00002.254992,00001.820201,-00000.731681,-00000.141302,-00000.494186,-00000.009739,-00000.115247,-00000.032417
0000000001411,00002.091470,00001.710382,00002.424848,00002.451845,00002.872021,00002.934718,00002.711552,00003.173250,00002.251184,00001.813468,-00000.765241,-00000.145151,-00000.492238,-00000.010054,-00000.118074,-00000.029926
0000000001412,00002.089698,00001.716707,00002.419209,00002.443413,00002.872931,00002.934543,00002.711336,00003.173522,00002.246914,00001.806394,-00000.800286,-00000.148226,-00000.489994,-00000.009742,-00000.120240,-00000.027960
0000000001413,00002.087391,00001.722701,00002.414368,00002.436263,00002.873773,00002.934040,00002.711044,00003.174107,00002.242584,00001.800300,-00000.834660,-00000.151139,-00000.487247,-00000.008922,-00000.120470,-00000.026564
0000000001414,00002.084794,00001.728448,00002.409205,00002.430898,00002.874548,00002.933165,00002.710861,00003.174339,00002.237860,00001.793190,-00000.868122,-00000.153757,-00000.484248,-00000.008294,-00000.119775,-00000.025253
0000000001415,00002.082468,00001.733551,00002.403633,00002.424086,00002.875627,00002.932012,00002.710612,00003.174473,00002.233086,00001.785825,-00000.900650,-00000.156600,-00000.482273,-00000.007595,-00000.119245,-00000.024066
0000000001416,00002.079894,00001.738444,00002.398149,00002.412989,00002.876287,00002.930904,00002.710456,00003.174671,00002.228339,00001.778684,-00000.932764,-00000.159191,-00000.480446,-00000.008149,-00000.119378,-00000.021861
0000000001417,00002.077914,00001.742425,00002.393043,00002.401384,00002.876843,00002.929922,00002.709882,00003.174786,00002.223549,00001.772051,-00000.962631,-00000.160886,-00000.478401,-00000.008642,-00000.120741,-00000.019036
0000000001418,00002.075360,00001.745502,00002.388737,00002.391212,00002.877041,00002.929341,00002.709386,00003.175317,00002.219145,00001.765972,-00000.989244,-00000.162366,-00000.476120,-00000.009114,-00000.122306,-00000.016071
0000000001419,00002.072223,00001.747802,00002.384390,00002.382422,00002.876789,00002.927780,00002.708897,00003.175051,00002.215067,00001.760325,-00001.012131,-00000.163446,-00000.473291,-00000.009171,-00000.123103,-00000.012577
0000000001420,00002.069686,00001.749696,00002.381088,00002.379929,00002.877321,00002.926198,00002.708475,00003.175141,00002.211319,00001.755150,-00001.029708,-00000.164343,-00000.470624,-00000.008484,-00000.122621,-00000.009327
0000000001421,00002.066653,00001.750566,00002.378475,00002.380427,00002.877469,00002.924143,00002.708421,00003.175278,00002.207484,00001.750343,-00001.043024,-00000.164537,-00000.468216,-00000.007445,-00000.120398,-00000.006354
0000000001422,00002.063768,00001.751090,00002.376389,00002.380482,00002.877196,00002.922433,00002.708062,00003.175354,00002.203567,00001.746300,-00001.053996,-00000.164575,-00000.466670,-00000.007223,-00000.117811,-00000.003587
0000000001423,00002.060460,00001.750742,00002.374891,00002.380181,00002.876597,00002.920684,00002.707654,00003.175108,00002.200303,00001.742208,-00001.063518,-00000.164378,-00000.464983,-00000.007063,-00000.115918,-00000.000330
0000000001424,00002.057278,00001.750825,00002.374204,00002.379502,00002.876364,00002.919228,00002.707711,00003.174810,00002.197331,00001.738767,-00001.071045,-00000.163322,-00000.463668,-00000.007237,-00000.115530,00000.003114
0000000001425,00002.054099,00001.750530,00002.374743,00002.379971,00002.876217,00002.917739,00002.707726,00003.174600,00002.194552,00001.736371,-00001.075160,-00000.162428,-00000.462957,-00000.007464,-00000.115369,00000.006612
0000000001426,00002.051390,00001.749875,00002.376334,00002.381207,00002.875656,00002.916137,00002.707411,00003.174709,00002.192023,00001.734893,-00001.074311,-00000.161166,-00000.462563,-00000.007249,-00000.115039,00000.009907
0000000001427,00002.049410,00001.748897,00002.378607,00002.383058,00002.874442,00002.915232,00002.707062,00003.174893,00002.189657,00001.735030,-00001.070196,-00000.160042,-00000.462683,-00000.007080,-00000.113451,00000.012885
0000000001428,00002.047104,00001.747977,00002.380687,00002.385199,00002.873602,00002.913868,00002.707157,00003.174623,00002.188229,00001.734860,-00001.064032,-00000.158606,-00000.462710,-00000.006534,-00000.110630,00000.015690
0000000001429,00002.044692,00001.746782,00002.383347,00002.387499,00002.872206,00002.912372,00002.707222,00003.174418,00002.186578,00001.735340,-00001.056175,-00000.156560,-00000.462450,-00000.006027,-00000.107102,00000.017862
0000000001430,00002.042730,00001.745273,00002.386570,00002.388959,00002.869677,00002.911574,00002.706940,00003.174188,00002.185000,00001.737009,-00001.044760,-00000.154249,-00000.462473,-00000.005200,-00000.103612,00000.019524
0000000001431,00002.041039,00001.743530,00002.391011,00002.392006,00002.867763,00002.910663,00002.706995,00003.174375,00002.183957,00001.739594,-00001.030090,-00000.151420,-00000.462977,-00000.004405,-00000.100609,00000.021011
0000000001432,00002.039368,00001.741520,00002.396656,00002.397239,00002.865247,00002.909984,00002.706755,00003.174180,00002.183339,00001.742829,-00001.010577,-00000.148001,-00000.464448,-00000.003701,-00000.098001,00000.022788
0000000001433,00002.037567,00001.738948,00002.402251,00002.403098,00002.862529,00002.908846,00002.706802,00003.173977,00002.183177,00001.746481,-00000.986842,-00000.144504,-00000.466691,-00000.003387,-00000.094355,00000.024417
0000000001434,00002.036144,00001.735785,00002.407783,00002.409730,00002.858936,00002.907904,00002.706598,00003.173810,00002.183013,00001.749960,-00000.959710,-00000.140867,-00000.469757,-00000.003151,-00000.089233,00000.026293
0000000001435,00002.034973,00001.732507,00002.413271,00002.416895,00002.855534,00002.907298,00002.706276,00003.173637,00002.182875,00001.753432,-00000.930797,-00000.137165,-00000.473843,-00000.002884,-00000.083953,00000.028767
0000000001436,00002.033762,00001.729452,00002.418343,00002.424355,00002.852476,00002.906134,00002.706464,00003.173133,00002.182736,00001.756394,-00000.903346,-00000.133344,-00000.477179,-00000.002682,-00000.078503,00000.030364
0000000001437,00002.032765,00001.726299,00002.423378,00002.431905,00002.849217,00002.905618,00002.706190,00003.173348,00002.183344,00001.760075,-00000.876918,-00000.128741,-00000.479207,-00000.002092,-00000.073283,00000.030294
0000000001438,00002.031371,00001.723336,00002.428422,00002.439707,00002.846613,00002.904627,00002.706351,00003.173281,00002.184314,00001.763685,-00000.851009,-00000.123674,-00000.480232,-00000.001195,-00000.068644,00000.029477
0000000001439,00002.030523,00001.720288,00002.433434,00002.447223,00002.844201,00002.904551,00002.706117,00003.173465,00002.185194,00001.767182,-00000.826335,-00000.118667,-00000.481596,-00000.000330,-00000.065651,00000.028329
0000000001440,00002.029336,00001.717766,00002.437364,00002.454227,00002.841622,00002.904433,00002.706254,00003.173408,00002.186383,00001.770617,-00000.802465,-00000.113990,-00000.483557,00000.000071,-00000.063516,00000.027633
0000000001441,00002.028614,00001.715171,00002.441631,00002.460988,00002.839206,00002.904368,00002.706055,00003.173202,00002.187858,00001.773957,-00000.777469,-00000.109728,-00000.485806,00000.000082,-00000.061330,00000.027019
0000000001442,00002.027966,00001.712661,00002.444977,00002.469490,00002.837373,00002.903905,00002.706171,00003.173153,00002.189595,00001.777607,-00000.751706,-00000.105747,-00000.488202,00000.000061,-00000.058062,00000.026427
0000000001443,00002.027351,00001.710090,00002.448246,00002.480688,00002.835316,00002.903849,00002.706364,00003.172977,00002.190851,00001.780450,-00000.724985,-00000.102118,-00000.490842,00000.000433,-00000.054750,00000.025904
0000000001444,00002.027163,00001.706864,00002.451820,00002.492642,00002.833756,00002.903818,00002.706464,00003.173662,00002.191967,00001.783195,-00000.698337,-00000.098730,-00000.493606,00000.000414,-00000.050516,00000.025399
0000000001445,00002.027002,00001.703950,00002.454604,00002.505077,00002.832731,00002.903770,00002.706991,00003.173875,00002.193399,00001.785615,-00000.672324,-00000.096003,-00000.496942,00000.000006,-00000.045883,00000.025317
0000000001446,00002.027205,00001.700841,00002.457646,00002.517068,00002.831765,00002.903381,00002.707076,00003.174457,00002.194712,00001.787952,-00000.647099,-00000.093481,-00000.500022,-00000.000373,-00000.041553,00000.025613
0000000001447,00002.027431,00001.698360,00002.460016,00002.528379,00002.830529,00002.903703,00002.707524,00003.175002,00002.195931,00001.790012,-00000.623503,-00000.091160,-00000.502861,-00000.000721,-00000.037609,00000.025543
0000000001448,00002.027241,00001.695714,00002.462606,00002.537862,00002.829345,00002.903734,00002.707596,00003.175135,00002.197412,00001.792001,-00000.600941,-00000.088287,-00000.504757,-00000.001043,-00000.034286,00000.025070
0000000001449,00002.027070,00001.692876,00002.464986,00002.546403,00002.828293,00002.903646,00002.707616,00003.175598,00002.198812,00001.794118,-00000.579766,-00000.085586,-00000.506449,-00000.000976,-00000.030928,00000.023921
0000000001450,00002.026908,00001.690623,00002.466828,00002.554837,00002.827284,00002.903673,00002.708040,00003.175712,00002.200436,00001.796174,-00000.560195,-00000.083141,-00000.508063,-00000.000888,-00000.028099,00000.022793
0000000001451,00002.026763,00001.688570,00002.468854,00002.561383,00002.826752,00002.903961,00002.708419,00003.175743,00002.201991,00001.799065,-00000.541806,-00000.081204,-00000.509866,-00000.001194,-00000.025966,00000.021816
0000000001452,00002.026625,00001.686652,00002.470422,00002.566750,00002.826256,00002.904346,00002.708780,00003.175840,00002.203372,00001.802629,-00000.524420,-00000.079847,-00000.511966,-00000.001844,-00000.024284,00000.020855
0000000001453,00002.027227,00001.684542,00002.471784,00002.570145,00002.825077,00002.904954,00002.708740,00003.175867,00002.204333,00001.805452,-00000.507314,-00000.078561,-00000.514226,-00000.002468,-00000.023194,00000.019660
0000000001454,00002.027835,00001.682546,00002.473482,00002.572174,00002.824655,00002.905282,00002.708685,00003.175949,00002.205147,00001.807036,-00000.491062,-00000.077770,-00000.516739,-00000.003021,-00000.021761,00000.018117
0000000001455,00002.028348,00001.680387,00002.474642,00002.573613,00002.823651,00002.905799,00002.708288,00003.175972,00002.205965,00001.807988,-00000.475774,-00000.077037,-00000.519027,-00000.003189,-00000.019382,00000.016374
0000000001456,00002.028865,00001.678325,00002.476087,00002.574978,00002.822929,00002.906078,00002.708241,00003.176042,00002.206658,00001.808973,-00000.461577,-00000.076363,-00000.521166,-00000.003298,-00000.016711,00000.015060
0000000001457,00002.028939,00001.675761,00002.477437,00002.575115,00002.822437,00002.906156,00002.707903,00003.176061,00002.206991,00001.809421,-00000.448562,-00000.075740,-00000.523476,-00000.003803,-00000.014686,00000.014302
0000000001458,00002.029017,00001.673281,00002.478304,00002.574462,00002.821460,00002.906394,00002.707500,00003.175758,00002.207218,00001.809897,-00000.436838,-00000.075166,-00000.525660,-00000.004621,-00000.013501,00000.013546
0000000001459,00002.029442,00001.670735,00002.479454,00002.573128,00002.820678,00002.906823,00002.707575,00003.175775,00002.207502,00001.810278,-00000.426121,-00000.074636,-00000.527626,-00000.005414,-00000.013228,00000.012901
0000000001460,00002.029509,00001.668261,00002.480192,00002.571484,00002.820209,00002.907025,00002.707595,00003.175154,00002.207695,00001.810683,-00000.416867,-00000.074510,-00000.529485,-00000.006474,-00000.012944,00000.011894
0000000001461,00002.029508,00001.665731,00002.480808,00002.569985,00002.819181,00002.907027,00002.707659,00003.174805,00002.207937,00001.811008,-00000.408106,-00000.074058,-00000.530797,-00000.006786,-00000.012349,00000.010620
0000000001462,00002.029564,00001.663262,00002.481436,00002.568586,00002.818781,00002.907200,00002.708038,00003.174639,00002.208464,00001.811715,-00000.399865,-00000.073226,-00000.531654,-00000.006962,-00000.011382,00000.009037
0000000001463,00002.029564,00001.661108,00002.481960,00002.566947,00002.818632,00002.907202,00002.708093,00003.174342,00002.208307,00001.812354,-00000.392407,-00000.072479,-00000.532407,-00000.007228,-00000.010876,00000.007589
0000000001464,00002.029612,00001.659369,00002.482133,00002.566119,00002.818292,00002.907348,00002.708053,00003.174201,00002.208393,00001.812594,-00000.385391,-00000.072133,-00000.533137,-00000.007378,-00000.010415,00000.005880
0000000001465,00002.029611,00001.657173,00002.482942,00002.565449,00002.817801,00002.907350,00002.707737,00003.173948,00002.208259,00001.812775,-00000.379043,-00000.071859,-00000.533778,-00000.007605,-00000.009984,00000.003921
0000000001466,00002.030015,00001.655329,00002.483814,00002.564744,00002.817149,00002.907838,00002.707703,00003.174191,00002.208333,00001.813342,-00000.373070,-00000.071565,-00000.534762,-00000.007732,-00000.009229,00000.002103
0000000001467,00002.030015,00001.653460,00002.484140,00002.564174,00002.816369,00002.907839,00002.707434,00003.173613,00002.208945,00001.813496,-00000.367665,-00000.071332,-00000.535308,-00000.007562,-00000.008137,00000.000436
0000000001468,00002.030358,00001.651527,00002.484520,00002.563211,00002.815451,00002.907891,00002.706680,00003.173457,00002.209007,00001.813616,-00000.362581,-00000.071081,-00000.535783,-00000.007308,-00000.007494,-00000.001112
0000000001469,00002.029925,00001.648654,00002.485121,00002.561180,00002.814368,00002.907574,00002.706534,00003.172469,00002.209944,00001.814212,-00000.353651,-00000.070307,-00000.536289,-00000.006947,-00000.007468,-00000.003849
0000000001470,00002.030282,00001.645845,00002.485995,00002.560177,00002.813446,00002.907667,00002.706410,00003.171991,00002.210741,00001.815082,-00000.346413,-00000.070010,-00000.536358,-00000.005914,-00000.006720,-00000.006542
0000000001471,00002.030282,00001.644645,00002.486505,00002.559562,00002.813274,00002.907668,00002.706552,00003.171997,00002.211118,00001.815440,-00000.343804,-00000.069913,-00000.536023,-00000.005137,-00000.005846,-00000.007933
0000000001472,00002.030223,00001.643816,00002.486739,00002.559323,00002.813024,00002.907746,00002.706667,00003.171584,00002.211783,00001.815823,-00000.341338,-00000.069758,-00000.535690,-00000.004309,-00000.004996,-00000.009197
0000000001473,00002.030898,00001.641726,00002.487372,00002.558233,00002.812665,00002.907814,00002.706160,00003.171600,00002.212307,00001.816817,-00000.337745,-00000.069906,-00000.535122,-00000.003668,-00000.004978,-00000.011095
0000000001474,00002.031473,00001.639222,00002.487912,00002.558031,00002.811634,00002.907871,00002.705729,00003.171251,00002.212390,00001.818025,-00000.335048,-00000.070032,-00000.534275,-00000.002760,-00000.003875,-00000.013073
0000000001475,00002.031373,00001.638536,00002.487963,00002.557960,00002.811581,00002.907872,00002.705916,00003.170893,00002.212623,00001.818509,-00000.333647,-00000.069918,-00000.533706,-00000.002181,-00000.002827,-00000.013931
0000000001476,00002.031514,00001.636868,00002.488052,00002.557436,00002.811074,00002.907920,00002.705884,00003.169923,00002.212659,00001.818740,-00000.331197,-00000.069679,-00000.531982,-00000.000405,-00000.001319,-00000.015487
0000000001477,00002.031761,00001.635892,00002.488090,00002.556986,00002.810626,00002.907961,00002.705666,00003.169721,00002.212467,00001.819258,-00000.330126,-00000.069922,-00000.531235,00000.000378,-00000.000847,-00000.015828
0000000001478,00002.031482,00001.634618,00002.488160,00002.556607,00002.810261,00002.907997,00002.706034,00003.168926,00002.213615,00001.819741,-00000.328562,-00000.070408,-00000.530241,00000.001773,00000.000730,-00000.016739
0000000001479,00002.031737,00001.634241,00002.488192,00002.556609,00002.809965,00002.907997,00002.706196,00003.168396,00002.215309,00001.820502,-00000.328424,-00000.070647,-00000.529990,00000.002393,00000.001422,-00000.016960
0000000001480,00002.032187,00001.633575,00002.488247,00002.557011,00002.810061,00002.908027,00002.706485,00003.168161,00002.217849,00001.823702,-00000.328201,-00000.071025,-00000.529181,00000.003488,00000.001936,-00000.017340
0000000001481,00002.033622,00001.631491,00002.488696,00002.556919,00002.810575,00002.910506,00002.705906,00003.167790,00002.221850,00001.828436,-00000.327905,-00000.071985,-00000.527597,00000.003817,00000.000986,-00000.018611
0000000001482,00002.036331,00001.630508,00002.488675,00002.558726,00002.811305,00002.912340,00002.706238,00003.168008,00002.224142,00001.836987,-00000.328485,-00000.073616,-00000.527144,00000.003612,-00000.000249,-00000.019472
0000000001483,00002.039726,00001.630035,00002.488295,00002.563893,00002.812290,00002.913901,00002.706520,00003.168556,00002.226456,00001.844629,-00000.328979,-00000.075367,-00000.527121,00000.003801,-00000.001663,-00000.020204
0000000001484,00002.041528,00001.629269,00002.488697,00002.565751,00002.813128,00002.914867,00002.706761,00003.168660,00002.228063,00001.850771,-00000.329400,-00000.077220,-00000.527827,00000.003236,-00000.002141,-00000.020828
0000000001485,00002.042834,00001.628901,00002.489024,00002.566249,00002.813246,00002.915867,00002.707214,00003.168828,00002.228960,00001.853195,-00000.329584,-00000.078044,-00000.528109,00000.002952,-00000.002367,-00000.020734
0000000001486,00002.043811,00001.628303,00002.488955,00002.565218,00002.813580,00002.915815,00002.707352,00003.168165,00002.230194,00001.856250,-00000.329915,-00000.078773,-00000.528305,00000.002876,-00000.003103,-00000.021279
0000000001487,00002.044676,00001.627699,00002.488968,00002.564959,00002.813415,00002.915247,00002.707086,00003.168460,00002.230542,00001.855790,-00000.330426,-00000.079107,-00000.528577,00000.002708,-00000.003983,-00000.021865
0000000001488,00002.045005,00001.627069,00002.488533,00002.564702,00002.813138,00002.915408,00002.707106,00003.168327,00002.230883,00001.854860,-00000.330922,-00000.079758,-00000.528835,00000.002448,-00000.004819,-00000.022105
0000000001489,00002.046022,00001.626019,00002.488537,00002.563538,00002.812762,00002.915424,00002.706897,00003.167740,00002.231469,00001.851500,-00000.331779,-00000.080958,-00000.530012,00000.002084,-00000.005916,-00000.021721
0000000001490,00002.046524,00001.625124,00002.488178,00002.562910,00002.813167,00002.915076,00002.707807,00003.167239,00002.232331,00001.848276,-00000.332146,-00000.081980,-00000.531013,00000.001774,-00000.005762,-00000.022119
0000000001491,00002.046795,00001.624388,00002.487823,00002.562125,00002.813012,00002.914263,00002.707489,00003.166841,00002.232182,00001.847258,-00000.331736,-00000.082449,-00000.531444,00000.001670,-00000.006050,-00000.022263
0000000001492,00002.046952,00001.624000,00002.487872,00002.561649,00002.813149,00002.913690,00002.707856,00003.166450,00002.232701,00001.845895,-00000.331370,-00000.082850,-00000.531866,00000.001148,-00000.006719,-00000.022458
0000000001493,00002.047317,00001.622680,00002.487974,00002.560214,00002.812772,00002.912874,00002.707173,00003.165779,00002.231929,00001.843142,-00000.331073,-00000.083591,-00000.532592,00000.000977,-00000.007897,-00000.022020
0000000001494,00002.047150,00001.622509,00002.488026,00002.560370,00002.813022,00002.912956,00002.707668,00003.165853,00002.232547,00001.842149,-00000.331084,-00000.083931,-00000.532541,00000.000902,-00000.008414,-00000.021816
0000000001495,00002.047122,00001.621411,00002.488105,00002.559487,00002.813026,00002.912612,00002.707375,00003.165633,00002.232523,00001.840317,-00000.330466,-00000.084511,-00000.533530,00000.000405,-00000.009340,-00000.020749
0000000001496,00002.047219,00001.620909,00002.488498,00002.558877,00002.813211,00002.912930,00002.707439,00003.165701,00002.232726,00001.839476,-00000.330603,-00000.084758,-00000.534153,-00000.000018,-00000.010115,-00000.020297
0000000001497,00002.047544,00001.620049,00002.488870,00002.558216,00002.813187,00002.914041,00002.707543,00003.166229,00002.232312,00001.837315,-00000.330783,-00000.085578,-00000.535264,-00000.000740,-00000.010788,-00000.019456
0000000001498,00002.047750,00001.620043,00002.488902,00002.558513,00002.812978,00002.914446,00002.707948,00003.166321,00002.232847,00001.836393,-00000.330836,-00000.085788,-00000.535396,-00000.001050,-00000.010328,-00000.018704
0000000001499,00002.047633,00001.619312,00002.488488,00002.558995,00002.812263,00002.914606,00002.707976,00003.166032,00002.232779,00001.835054,-00000.330980,-00000.086454,-00000.535960,-00000.001619,-00000.010243,-00000.018100
0000000001500,00002.047800,00001.619365,00002.488476,00002.559190,00002.812531,00002.914810,00002.708378,00003.165719,00002.233313,00001.834635,-00000.331065,-00000.086561,-00000.536398,-00000.001880,-00000.010196,-00000.017821
0000000001501,00002.047676,00001.619460,00002.487763,00002.559571,00002.812245,00002.915278,00002.708343,00003.165156,00002.233900,00001.833194,-00000.331175,-00000.086750,-00000.536813,-00000.002326,-00000.010494,-00000.016985
0000000001502,00002.047757,00001.619139,00002.487474,00002.560117,00002.811754,00002.915529,00002.707967,00003.165630,00002.234013,00001.832579,-00000.331208,-00000.086834,-00000.536849,-00000.002517,-00000.011198,-00000.016784
0000000001503,00002.047639,00001.618905,00002.487272,00002.562537,00002.811946,00002.914802,00002.708355,00003.165080,00002.234134,00001.831444,-00000.332023,-00000.087708,-00000.537196,-00000.002505,-00000.012073,-00000.016465
0000000001504,00002.047788,00001.618992,00002.486948,00002.565506,00002.811794,00002.914982,00002.708286,00003.165613,00002.234517,00001.830923,-00000.332384,-00000.087719,-00000.536741,-00000.002303,-00000.011890,-00000.016339
0000000001505,00002.047665,00001.618779,00002.486462,00002.569664,00002.811981,00002.914699,00002.708264,00003.165791,00002.234563,00001.830396,-00000.333024,-00000.087736,-00000.536017,-00000.002324,-00000.010847,-00000.016086
0000000001506,00002.047453,00001.618845,00002.486700,00002.571724,00002.812250,00002.914690,00002.708658,00003.165920,00002.234633,00001.830017,-00000.333307,-00000.087742,-00000.535730,-00000.002178,-00000.010764,-00000.015599
0000000001507,00002.047380,00001.618654,00002.486614,00002.575683,00002.812368,00002.914813,00002.708581,00003.166416,00002.234661,00001.829988,-00000.334535,-00000.087392,-00000.534793,-00000.001855,-00000.010615,-00000.015094
0000000001508,00002.047472,00001.618445,00002.486676,00002.577977,00002.812221,00002.914924,00002.708539,00003.166744,00002.234635,00001.831018,-00000.335067,-00000.087091,-00000.533787,-00000.001684,-00000.010910,-00000.015070
0000000001509,00002.048122,00001.617951,00002.486957,00002.582095,00002.812707,00002.915738,00002.708479,00003.167843,00002.235389,00001.832654,-00000.337847,-00000.087201,-00000.532776,-00000.002159,-00000.014367,-00000.014643
0000000001510,00002.048662,00001.618045,00002.486787,00002.584663,00002.812972,00002.916405,00002.708822,00003.168232,00002.236103,00001.833973,-00000.339265,-00000.087204,-00000.532336,-00000.002016,-00000.016277,-00000.013880
0000000001511,00002.049498,00001.618336,00002.487050,00002.588149,00002.813709,00002.916273,00002.709083,00003.168384,00002.236276,00001.840974,-00000.342873,-00000.086935,-00000.530815,-00000.001716,-00000.019298,-00000.013267
0000000001512,00002.050180,00001.618516,00002.487089,00002.589874,00002.814198,00002.916295,00002.709057,00003.168540,00002.236214,00001.844126,-00000.345024,-00000.087066,-00000.530148,-00000.001565,-00000.021575,-00000.012627
0000000001513,00002.052241,00001.619100,00002.487308,00002.595488,00002.815115,00002.916906,00002.709283,00003.168647,00002.236733,00001.849618,-00000.349226,-00000.087180,-00000.528590,-00000.001332,-00000.025260,-00000.012563
0000000001514,00002.053192,00001.619158,00002.487412,00002.600012,00002.815179,00002.917046,00002.709186,00003.168932,00002.236602,00001.851955,-00000.351245,-00000.087182,-00000.528056,-00000.001244,-00000.025967,-00000.012718
0000000001515,00002.054443,00001.619647,00002.486857,00002.607021,00002.815951,00002.915730,00002.709756,00003.168617,00002.237063,00001.854106,-00000.355610,-00000.087641,-00000.526446,-00000.001059,-00000.027185,-00000.014455
0000000001516,00002.055543,00001.619658,00002.486981,00002.609654,00002.816252,00002.915852,00002.710003,00003.169177,00002.237242,00001.853248,-00000.357555,-00000.088085,-00000.526134,-00000.001328,-00000.026930,-00000.015257
0000000001517,00002.057170,00001.619709,00002.487216,00002.611964,00002.816864,00002.915440,00002.710088,00003.169914,00002.237245,00001.851216,-00000.360982,-00000.088773,-00000.525536,-00000.001131,-00000.025827,-00000.016979
0000000001518,00002.057703,00001.619382,00002.487326,00002.611389,00002.817167,00002.915255,00002.709928,00003.170445,00002.237064,00001.850054,-00000.362491,-00000.088674,-00000.525252,-00000.001439,-00000.026109,-00000.017918
0000000001519,00002.058282,00001.619112,00002.487509,00002.606911,00002.817280,00002.914569,00002.710025,00003.170993,00002.236731,00001.847408,-00000.365909,-00000.088549,-00000.524785,-00000.001950,-00000.027306,-00000.019970
0000000001520,00002.058752,00001.618756,00002.487586,00002.604333,00002.817103,00002.914481,00002.709860,00003.171438,00002.236579,00001.845582,-00000.367055,-00000.088514,-00000.524593,-00000.002163,-00000.027449,-00000.020728
0000000001521,00002.058813,00001.618216,00002.487005,00002.598727,00002.816500,00002.913547,00002.710330,00003.170751,00002.236681,00001.841787,-00000.369070,-00000.088412,-00000.524949,-00000.002567,-00000.027721,-00000.021999
0000000001522,00002.059196,00001.618014,00002.487127,00002.596494,00002.816061,00002.913487,00002.710177,00003.170823,00002.236206,00001.840553,-00000.369955,-00000.088351,-00000.525083,-00000.002757,-00000.027848,-00000.022532
0000000001523,00002.059191,00001.617584,00002.486614,00002.592779,00002.815250,00002.913063,00002.709511,00003.170227,00002.235638,00001.838594,-00000.371901,-00000.088274,-00000.524641,-00000.003072,-00000.028061,-00000.023535
0000000001524,00002.059581,00001.617727,00002.486815,00002.591960,00002.815604,00002.913055,00002.709727,00003.170339,00002.235861,00001.837876,-00000.372608,-00000.088252,-00000.524476,-00000.003203,-00000.028512,-00000.024003
0000000001525,00002.059155,00001.617340,00002.486349,00002.589645,00002.814861,00002.911970,00002.709853,00003.169814,00002.236069,00001.835953,-00000.374522,-00000.088190,-00000.524124,-00000.003453,-00000.028989,-00000.024787
0000000001526,00002.059129,00001.617216,00002.486478,00002.588577,00002.814590,00002.912033,00002.709805,00003.169959,00002.236032,00001.835145,-00000.374968,-00000.088152,-00000.523944,-00000.003570,-00000.029376,-00000.025116
0000000001527,00002.059133,00001.617268,00002.486062,00002.587127,00002.814361,00002.911826,00002.709557,00003.169492,00002.236215,00001.835080,-00000.375080,-00000.087742,-00000.524034,-00000.003765,-00000.029361,-00000.025734
0000000001528,00002.059157,00001.617039,00002.486286,00002.585526,00002.814725,00002.912329,00002.709381,00003.170023,00002.236035,00001.834991,-00000.375162,-00000.087782,-00000.524295,-00000.003845,-00000.029377,-00000.025660
0000000001529,00002.059158,00001.616391,00002.486261,00002.582354,00002.814476,00002.913166,00002.709196,00003.170271,00002.235855,00001.834948,-00000.375971,-00000.087427,-00000.523970,-00000.003999,-00000.027911,-00000.025472
0000000001530,00002.059141,00001.616315,00002.486441,00002.580760,00002.814308,00002.913514,00002.709167,00003.170044,00002.235832,00001.834613,-00000.376292,-00000.087041,-00000.523813,-00000.004072,-00000.027269,-00000.025004
0000000001531,00002.058418,00001.616138,00002.486393,00002.577208,00002.814121,00002.914175,00002.709014,00003.169926,00002.236045,00001.833901,-00000.376933,-00000.087158,-00000.524648,-00000.004555,-00000.026117,-00000.024188
0000000001532,00002.058124,00001.616043,00002.486222,00002.575594,00002.813411,00002.914486,00002.708905,00003.169682,00002.235880,00001.833229,-00000.376883,-00000.087229,-00000.525218,-00000.004967,-00000.025600,-00000.023833
0000000001533,00002.057553,00001.615906,00002.485482,00002.573173,00002.812994,00002.915002,00002.708791,00003.168893,00002.236086,00001.833085,-00000.375985,-00000.087319,-00000.525481,-00000.005317,-00000.023245,-00000.023192
0000000001534,00002.057066,00001.615790,00002.485214,00002.571112,00002.812640,00002.915442,00002.708694,00003.168947,00002.235898,00001.833326,-00000.375584,-00000.087395,-00000.525343,-00000.005252,-00000.021965,-00000.023008
0000000001535,00002.057197,00001.615749,00002.485508,00002.570399,00002.812929,00002.915624,00002.708678,00003.169151,00002.235840,00001.833011,-00000.375589,-00000.087416,-00000.525862,-00000.005568,-00000.021411,-00000.022708
0000000001536,00002.057489,00001.615656,00002.485962,00002.568750,00002.812947,00002.915971,00002.708598,00003.169166,00002.235689,00001.833625,-00000.374521,-00000.087478,-00000.526755,-00000.006191,-00000.021492,-00000.021508
0000000001537,00002.057375,00001.615940,00002.485985,00002.568436,00002.812962,00002.915904,00002.708167,00003.168454,00002.235561,00001.834511,-00000.373249,-00000.087531,-00000.527878,-00000.006721,-00000.021562,-00000.020849
0000000001538,00002.057506,00001.615844,00002.485770,00002.568615,00002.812742,00002.916043,00002.707756,00003.168293,00002.235487,00001.834934,-00000.372325,-00000.087562,-00000.528205,-00000.006978,-00000.021383,-00000.020791
0000000001539,00002.057752,00001.615737,00002.485822,00002.569409,00002.812425,00002.916690,00002.707813,00003.168073,00002.235751,00001.835988,-00000.370654,-00000.087602,-00000.528750,-00000.007392,-00000.021468,-00000.019876
0000000001540,00002.057504,00001.615715,00002.486439,00002.569645,00002.813040,00002.916832,00002.708213,00003.168365,00002.236083,00001.836270,-00000.370263,-00000.087613,-00000.529339,-00000.007558,-00000.022087,-00000.019086
0000000001541,00002.057750,00001.615627,00002.486754,00002.571737,00002.813404,00002.917000,00002.707839,00003.168860,00002.235896,00001.837125,-00000.369261,-00000.087283,-00000.530078,-00000.007885,-00000.023519,-00000.018062
0000000001542,00002.058323,00001.615553,00002.487748,00002.575694,00002.813714,00002.917142,00002.707884,00003.168919,00002.236100,00001.838579,-00000.367320,-00000.086639,-00000.529619,-00000.007438,-00000.022924,-00000.017915
0000000001543,00002.058338,00001.615502,00002.488531,00002.577248,00002.813861,00002.917176,00002.707937,00003.169097,00002.236022,00001.839017,-00000.366480,-00000.086710,-00000.530162,-00000.007990,-00000.022653,-00000.018069
0000000001544,00002.058823,00001.615446,00002.489261,00002.578934,00002.813740,00002.917292,00002.707605,00003.168758,00002.236207,00001.839464,-00000.364226,-00000.086514,-00000.531504,-00000.008253,-00000.021824,-00000.017559
0000000001545,00002.059236,00001.615761,00002.489882,00002.581096,00002.813637,00002.917391,00002.708047,00003.168832,00002.236727,00001.840207,-00000.361583,-00000.086347,-00000.532284,-00000.007751,-00000.021481,-00000.017488
0000000001546,00002.059578,00001.615751,00002.490554,00002.582194,00002.814185,00002.917764,00002.708081,00003.169047,00002.236954,00001.840569,-00000.360422,-00000.086107,-00000.532613,-00000.007918,-00000.021311,-00000.017649
0000000001547,00002.059516,00001.616021,00002.490983,00002.584234,00002.814016,00002.917793,00002.708453,00003.168715,00002.237363,00001.840423,-00000.357981,-00000.085638,-00000.533228,-00000.008192,-00000.019956,-00000.017927
0000000001548,00002.059887,00001.615948,00002.490807,00002.585174,00002.814147,00002.918165,00002.708435,00003.168948,00002.237546,00001.840344,-00000.357053,-00000.085412,-00000.533513,-00000.008304,-00000.018818,-00000.018047
0000000001549,00002.060505,00001.615826,00002.490836,00002.586407,00002.813984,00002.918134,00002.708028,00003.168993,00002.237141,00001.839868,-00000.355476,-00000.085046,-00000.533631,-00000.007795,-00000.017108,-00000.018265
0000000001550,00002.060399,00001.616137,00002.490988,00002.586051,00002.814421,00002.918147,00002.708366,00003.169172,00002.237336,00001.839829,-00000.354806,-00000.084899,-00000.533525,-00000.007589,-00000.016531,-00000.018002
0000000001551,00002.060215,00001.615623,00002.491352,00002.584614,00002.813854,00002.918119,00002.707969,00003.169184,00002.236962,00001.839066,-00000.353563,-00000.084609,-00000.533642,-00000.007186,-00000.016250,-00000.017139
0000000001552,00002.059696,00001.615549,00002.491300,00002.583029,00002.813009,00002.917732,00002.707632,00003.168832,00002.237007,00001.836966,-00000.353230,-00000.084363,-00000.534104,-00000.006843,-00000.016736,-00000.017130
0000000001553,00002.059264,00001.615511,00002.491470,00002.581745,00002.812854,00002.916979,00002.707716,00003.168730,00002.236879,00001.836037,-00000.352689,-00000.084244,-00000.533936,-00000.006678,-00000.016934,-00000.017293
0000000001554,00002.058890,00001.615486,00002.491255,00002.581316,00002.812652,00002.916677,00002.707707,00003.168532,00002.237045,00001.835179,-00000.352221,-00000.084153,-00000.533771,-00000.006551,-00000.017149,-00000.017485
0000000001555,00002.058931,00001.615069,00002.490854,00002.579858,00002.811985,00002.915417,00002.707408,00003.168277,00002.236715,00001.833294,-00000.352088,-00000.084700,-00000.534214,-00000.006303,-00000.017502,-00000.017062
0000000001556,00002.058602,00001.615077,00002.490876,00002.580794,00002.811780,00002.915069,00002.707880,00003.168422,00002.236434,00001.832052,-00000.351975,-00000.084803,-00000.533865,-00000.006091,-00000.018890,-00000.017427
0000000001557,00002.058599,00001.614737,00002.490981,00002.581291,00002.811739,00002.914913,00002.707569,00003.168668,00002.236355,00001.831533,-00000.351904,-00000.084993,-00000.533716,-00000.005989,-00000.019367,-00000.017574
0000000001558,00002.058320,00001.614432,00002.490258,00002.580925,00002.811571,00002.914640,00002.707291,00003.168392,00002.236127,00001.830190,-00000.352544,-00000.085415,-00000.534893,-00000.007275,-00000.020841,-00000.017137
0000000001559,00002.058082,00001.614535,00002.490006,00002.580251,00002.812153,00002.915134,00002.707417,00003.167795,00002.236296,00001.829410,-00000.355990,-00000.086137,-00000.534080,-00000.007282,-00000.023183,-00000.017128
0000000001560,00002.058191,00001.614932,00002.490351,00002.579171,00002.812775,00002.914978,00002.707453,00003.167706,00002.236180,00001.829429,-00000.360481,-00000.086272,-00000.532376,-00000.007079,-00000.025871,-00000.017710
0000000001561,00002.057609,00001.616049,00002.490448,00002.576943,00002.813541,00002.914333,00002.707555,00003.167936,00002.235978,00001.828037,-00000.370729,-00000.085778,-00000.529035,-00000.006752,-00000.032908,-00000.017979
0000000001562,00002.057345,00001.616766,00002.490642,00002.576193,00002.814523,00002.914205,00002.708032,00003.168251,00002.235891,00001.827818,-00000.375689,-00000.086295,-00000.527427,-00000.006621,-00000.036024,-00000.018095
0000000001563,00002.056889,00001.617973,00002.490695,00002.574771,00002.815754,00002.913675,00002.708411,00003.169125,00002.235733,00001.826665,-00000.387304,-00000.087611,-00000.524459,-00000.005636,-00000.041551,-00000.019395
0000000001564,00002.056693,00001.618481,00002.490962,00002.574468,00002.816818,00002.913316,00002.708333,00003.169696,00002.235661,00001.826151,-00000.393503,-00000.088775,-00000.522736,-00000.004839,-00000.044415,-00000.020163
0000000001565,00002.056335,00001.620159,00002.490968,00002.576930,00002.819522,00002.912555,00002.708667,00003.171807,00002.235899,00001.825246,-00000.412990,-00000.090812,-00000.519378,-00000.003394,-00000.051959,-00000.021518
0000000001566,00002.056029,00001.622675,00002.490973,00002.577213,00002.822550,00002.911907,00002.708951,00003.175056,00002.236102,00001.824112,-00000.442276,-00000.093634,-00000.515068,-00000.001801,-00000.060196,-00000.022309
0000000001567,00002.055165,00001.624758,00002.490040,00002.575231,00002.824726,00002.911577,00002.708978,00003.175916,00002.236002,00001.823411,-00000.462378,-00000.095789,-00000.512979,-00000.001662,-00000.064497,-00000.022092
0000000001568,00002.052131,00001.629493,00002.487643,00002.570687,00002.829520,00002.910349,00002.708853,00003.177465,00002.235464,00001.821825,-00000.507540,-00000.101499,-00000.508895,-00000.001778,-00000.073771,-00000.021347
0000000001569,00002.050430,00001.631759,00002.486950,00002.568148,00002.831352,00002.909852,00002.709090,00003.178885,00002.235388,00001.821346,-00000.529378,-00000.104596,-00000.507657,-00000.002394,-00000.078349,-00000.020090
0000000001570,00002.047375,00001.635816,00002.485376,00002.564294,00002.834435,00002.908881,00002.709312,00003.180356,00002.233490,00001.818979,-00000.570381,-00000.110448,-00000.505816,-00000.003489,-00000.084475,-00000.016739
0000000001571,00002.045644,00001.638352,00002.484483,00002.562546,00002.836040,00002.908051,00002.709637,00003.181249,00002.231660,00001.817149,-00000.593412,-00000.112458,-00000.503331,-00000.003612,-00000.086574,-00000.016558
0000000001572,00002.042212,00001.642517,00002.482913,00002.559163,00002.838426,00002.905534,00002.709414,00003.183456,00002.225600,00001.813954,-00000.640131,-00000.116778,-00000.498505,-00000.004889,-00000.091840,-00000.013008
0000000001573,00002.038202,00001.645337,00002.481213,00002.556283,00002.840820,00002.903391,00002.709950,00003.185335,00002.219353,00001.809058,-00000.690061,-00000.122632,-00000.495122,-00000.007427,-00000.098137,-00000.006720
0000000001574,00002.036011,00001.646798,00002.479120,00002.553359,00002.841505,00002.901461,00002.709797,00003.185341,00002.215699,00001.805024,-00000.722511,-00000.126373,-00000.493103,-00000.008368,-00000.100380,-00000.003937
0000000001575,00002.030747,00001.648981,00002.472542,00002.541909,00002.840901,00002.897384,00002.709187,00003.185125,00002.207659,00001.791297,-00000.798647,-00000.135880,-00000.487621,-00000.010752,-00000.104318,-00000.002263
0000000001576,00002.026965,00001.650089,00002.468190,00002.534359,00002.840455,00002.894841,00002.709089,00003.184159,00002.203664,00001.783340,-00000.840528,-00000.141167,-00000.485343,-00000.012570,-00000.106409,-00000.000948
0000000001577,00002.019781,00001.652146,00002.457433,00002.518116,00002.838919,00002.888846,00002.708584,00003.181942,00002.194874,00001.768484,-00000.929227,-00000.152102,-00000.482829,-00000.016868,-00000.110903,00000.004635
0000000001578,00002.002055,00001.653171,00002.446461,00002.505377,00002.835435,00002.876849,00002.707793,00003.179693,00002.185940,00001.749670,-00001.011992,-00000.161047,-00000.478875,-00000.018350,-00000.111100,00000.012290
0000000001579,00001.986800,00001.653306,00002.441739,00002.499307,00002.832791,00002.867513,00002.707488,00003.178266,00002.181118,00001.736782,-00001.054307,-00000.165546,-00000.476226,-00000.018429,-00000.108195,00000.015491
0000000001580,00001.971728,00001.653318,00002.437121,00002.492355,00002.830292,00002.855753,00002.707118,00003.176689,00002.176158,00001.722045,-00001.102403,-00000.169751,-00000.472243,-00000.017798,-00000.104375,00000.018444
0000000001581,00001.940468,00001.655257,00002.425179,00002.470386,00002.824826,00002.834528,00002.704731,00003.172319,00002.167105,00001.690908,-00001.216012,-00000.176435,-00000.462970,-00000.016603,-00000.097198,00000.018966
0000000001582,00001.912406,00001.657997,00002.412111,00002.438986,00002.820172,00002.815734,00002.702698,00003.167147,00002.159035,00001.661862,-00001.331593,-00000.180673,-00000.454350,-00000.016674,-00000.095080,00000.015783
0000000001583,00001.899339,00001.659223,00002.406292,00002.423686,00002.817915,00002.806936,00002.702401,00003.164497,00002.154762,00001.648161,-00001.387346,-00000.181017,-00000.449424,-00000.015772,-00000.093509,00000.016413
0000000001584,00001.874128,00001.660284,00002.397846,00002.395603,00002.812475,00002.789705,00002.700715,00003.160125,00002.145988,00001.623295,-00001.484705,-00000.179495,-00000.438828,-00000.012338,-00000.088312,00000.024130
0000000001585,00001.862591,00001.660607,00002.393275,00002.380915,00002.809009,00002.782030,00002.699803,00003.157652,00002.141145,00001.610604,-00001.533188,-00000.179240,-00000.433940,-00000.010270,-00000.085172,00000.028298
0000000001586,00001.840667,00001.660374,00002.383862,00002.344679,00002.800903,00002.768140,00002.697777,00003.153573,00002.130405,00001.588058,-00001.638247,-00000.179434,-00000.425646,-00000.008017,-00000.080851,00000.031346
0000000001587,00001.820552,00001.660539,00002.375849,00002.305488,00002.792550,00002.755590,00002.696416,00003.149374,00002.119448,00001.568501,-00001.738930,-00000.182501,-00000.419311,-00000.008639,-00000.079712,00000.032127
0000000001588,00001.811327,00001.660017,00002.372011,00002.286013,00002.787897,00002.749896,00002.695402,00003.147635,00002.113319,00001.558902,-00001.788061,-00000.184597,-00000.416670,-00000.009092,-00000.079281,00000.034191
0000000001589,00001.794849,00001.660597,00002.364309,00002.249740,00002.779665,00002.739696,00002.694031,00003.143594,00002.101275,00001.536788,-00001.883881,-00000.187259,-00000.410582,-00000.009554,-00000.075837,00000.037089
0000000001590,00001.787870,00001.660852,00002.360426,00002.232088,00002.775666,00002.735139,00002.692872,00003.142086,00002.094630,00001.526354,-00001.930293,-00000.189350,-00000.408239,-00000.010290,-00000.073672,00000.037171
0000000001591,00001.773792,00001.661308,00002.352996,00002.198030,00002.769253,00002.726045,00002.691152,00003.138870,00002.081738,00001.505815,-00002.018749,-00000.195659,-00000.405218,-00000.012751,-00000.071061,00000.035635
0000000001592,00001.759994,00001.662422,00002.345582,00002.165045,00002.764156,00002.718303,00002.689687,00003.135769,00002.070036,00001.485427,-00002.110741,-00000.203207,-00000.397930,-00000.014483,-00000.066299,00000.031061
0000000001593,00001.752863,00001.663684,00002.340779,00002.148846,00002.762800,00002.714787,00002.688846,00003.134315,00002.064283,00001.476123,-00002.162456,-00000.209737,-00000.392476,-00000.015965,-00000.064916,00000.026857
0000000001594,00001.745707,00001.666635,00002.336005,00002.134063,00002.762356,00002.711350,00002.688077,00003.132767,00002.058986,00001.466982,-00002.216262,-00000.217250,-00000.387372,-00000.018134,-00000.064785,00000.021001
0000000001595,00001.739274,00001.670249,00002.331191,00002.119910,00002.761565,00002.707994,00002.686998,00003.131166,00002.054452,00001.457974,-00002.268994,-00000.225349,-00000.382729,-00000.020122,-00000.064333,00000.013430
0000000001596,00001.733183,00001.673850,00002.326764,00002.106962,00002.760462,00002.704705,00002.686344,00003.129486,00002.050668,00001.449829,-00002.318790,-00000.232108,-00000.378021,-00000.021968,-00000.062770,00000.004092
0000000001597,00001.726980,00001.676926,00002.322666,00002.094551,00002.759425,00002.701848,00002.685426,00003.128123,00002.047171,00001.441797,-00002.365858,-00000.237189,-00000.372980,-00000.022934,-00000.059483,-00000.004530
0000000001598,00001.721432,00001.680355,00002.318535,00002.082803,00002.758849,00002.699048,00002.684506,00003.127055,00002.043587,00001.433413,-00002.416231,-00000.244031,-00000.366796,-00000.023055,-00000.055250,-00000.013205
0000000001599,00001.715789,00001.684062,00002.314320,00002.070786,00002.757966,00002.696253,00002.683724,00003.125532,00002.039884,00001.425124,-00002.470811,-00000.252710,-00000.361053,-00000.023877,-00000.051000,-00000.023447
0000000001600,00001.710340,00001.687706,00002.308626,00002.058971,00002.758927,00002.693869,00002.682578,00003.124260,00002.036107,00001.417261,-00002.524577,-00000.263251,-00000.356151,-00000.025794,-00000.048485,-00000.036274
0000000001601,00001.702997,00001.691588,00002.303224,00002.047653,00002.761078,00002.691127,00002.681550,00003.122964,00002.032955,00001.410205,-00002.574307,-00000.273904,-00000.352351,-00000.028671,-00000.048133,-00000.048621
0000000001602,00001.696182,00001.695053,00002.297652,00002.037594,00002.761896,00002.688735,00002.680937,00003.121518,00002.030466,00001.403511,-00002.619715,-00000.283604,-00000.349266,-00000.031391,-00000.047443,-00000.058453
0000000001603,00001.691744,00001.699083,00002.291239,00002.027959,00002.761187,00002.686764,00002.680424,00003.120414,00002.028145,00001.395690,-00002.663501,-00000.293398,-00000.346031,-00000.033477,-00000.043878,-00000.066424
0000000001604,00001.687756,00001.702758,00002.285407,00002.018308,00002.760069,00002.684728,00002.679177,00003.119547,00002.025663,00001.387452,-00002.706148,-00000.302018,-00000.341591,-00000.034342,-00000.038574,-00000.074068
0000000001605,00001.683979,00001.706189,00002.279223,00002.009380,00002.758741,00002.682686,00002.677652,00003.118607,00002.023324,00001.379706,-00002.745600,-00000.309268,-00000.337023,-00000.035030,-00000.032637,-00000.081216
0000000001606,00001.680947,00001.709318,00002.273532,00002.001527,00002.757064,00002.681316,00002.676228,00003.117505,00002.020849,00001.372693,-00002.778277,-00000.315518,-00000.333606,-00000.036128,-00000.027759,-00000.085910
0000000001607,00001.677731,00001.712238,00002.268267,00001.994290,00002.755570,00002.679578,00002.675293,00003.116343,00002.018858,00001.365735,-00002.807146,-00000.321690,-00000.331169,-00000.037439,-00000.024882,-00000.089093
0000000001608,00001.674787,00001.714902,00002.263423,00001.987241,00002.754505,00002.678048,00002.674443,00003.115405,00002.016750,00001.359402,-00002.835690,-00000.328824,-00000.328985,-00000.038737,-00000.021817,-00000.091275
