0000000000696,00002.371775,00001.666533,00002.567937,00002.960096,00002.900617,00002.940445,00002.793867,00003.288608,00002.396018,00001.967337,-00000.494013,-00000.119243,-00000.621411,-00000.113918,00000.030483,-00000.211921
0000000000697,00002.371880,00001.667461,00002.567906,00002.959900,00002.900486,00002.940647,00002.793640,00003.288278,00002.396010,00001.967640,-00000.494294,-00000.119497,-00000.621649,-00000.114148,00000.031514,-00000.212506
0000000000698,00002.372090,00001.667596,00002.568106,00002.958547,00002.900656,00002.940366,00002.793817,00003.288274,00002.395993,00001.967931,-00000.494926,-00000.119652,-00000.621519,-00000.114392,00000.032118,-00000.212697
0000000000699,00002.372179,00001.667660,00002.568805,00002.957291,00002.901270,00002.940176,00002.793986,00003.288356,00002.395986,00001.968189,-00000.495890,-00000.119505,-00000.620996,-00000.114226,00000.032270,-00000.213195
0000000000700,00002.371632,00001.667049,00002.568975,00002.956139,00002.901052,00002.940299,00002.794137,00003.288353,00002.395609,00001.968436,-00000.496791,-00000.119273,-00000.620523,-00000.114071,00000.032058,-00000.212994
0000000000701,00002.370982,00001.666378,00002.569208,00002.954345,00002.901212,00002.940137,00002.793918,00003.288422,00002.394877,00001.968656,-00000.497612,-00000.119148,-00000.620078,-00000.113929,00000.032187,-00000.213056
0000000000702,00002.370154,00001.665495,00002.569352,00002.953001,00002.901389,00002.939879,00002.794047,00003.288419,00002.394556,00001.968867,-00000.498016,-00000.118952,-00000.619313,-00000.113434,00000.032733,-00000.213611
0000000000703,00002.369238,00001.664561,00002.569550,00002.952199,00002.901525,00002.940104,00002.794586,00003.288479,00002.394296,00001.969053,-00000.498353,-00000.118845,-00000.618570,-00000.113313,00000.033206,-00000.214026
0000000000704,00002.367807,00001.663447,00002.569311,00002.951781,00002.901314,00002.939885,00002.794695,00003.288114,00002.393660,00001.968870,-00000.498334,-00000.118678,-00000.617919,-00000.112892,00000.034033,-00000.214498
0000000000705,00002.367027,00001.662289,00002.569479,00002.951461,00002.901067,00002.940076,00002.794429,00003.288164,00002.393076,00001.969029,-00000.497895,-00000.118587,-00000.617287,-00000.112426,00000.035161,-00000.214852
0000000000706,00002.366172,00001.661340,00002.569275,00002.951468,00002.900886,00002.940252,00002.794159,00003.288216,00002.392534,00001.968873,-00000.497516,-00000.118444,-00000.616733,-00000.112068,00000.036954,-00000.215254
0000000000707,00002.365146,00001.660355,00002.569056,00002.951558,00002.900676,00002.940053,00002.794296,00003.287896,00002.392037,00001.968283,-00000.497142,-00000.118367,-00000.615832,-00000.111672,00000.038640,-00000.215917
0000000000708,00002.363692,00001.659547,00002.568882,00002.951927,00002.900160,00002.939839,00002.794066,00003.287578,00002.391576,00001.966699,-00000.496457,-00000.117883,-00000.614634,-00000.111366,00000.039803,-00000.216985
0000000000709,00002.362455,00001.659071,00002.568695,00002.952004,00002.899981,00002.939669,00002.793819,00003.286943,00002.391153,00001.964745,-00000.495776,-00000.117454,-00000.613505,-00000.111029,00000.040513,-00000.217913
0000000000710,00002.361218,00001.658383,00002.568548,00002.951592,00002.899904,00002.939125,00002.793623,00003.286671,00002.390760,00001.962671,-00000.495192,-00000.117042,-00000.612848,-00000.110769,00000.041140,-00000.218459
0000000000711,00002.360891,00001.657252,00002.568389,00002.951658,00002.899752,00002.938618,00002.793413,00003.286494,00002.390400,00001.960645,-00000.494612,-00000.117040,-00000.612249,-00000.110482,00000.041744,-00000.218886
0000000000712,00002.360563,00001.656667,00002.568626,00002.952033,00002.900049,00002.938517,00002.793610,00003.286263,00002.390428,00001.959242,-00000.494116,-00000.117052,-00000.611690,-00000.110261,00000.042278,-00000.218989
0000000000713,00002.360284,00001.656067,00002.568853,00002.952451,00002.900282,00002.938448,00002.793793,00003.286474,00002.390484,00001.958243,-00000.493622,-00000.117050,-00000.611543,-00000.110016,00000.042067,-00000.218989
0000000000714,00002.360005,00001.655569,00002.569055,00002.952770,00002.900535,00002.938363,00002.793961,00003.286278,00002.390146,00001.957412,-00000.492836,-00000.117060,-00000.611067,-00000.109828,00000.041796,-00000.218713
0000000000715,00002.360131,00001.655058,00002.570700,00002.953127,00002.900371,00002.938666,00002.793754,00003.286458,00002.389831,00001.956561,-00000.492416,-00000.117059,-00000.610942,-00000.109620,00000.041617,-00000.218351
0000000000716,00002.359893,00001.654634,00002.572322,00002.953399,00002.900587,00002.938594,00002.793897,00003.286653,00002.389543,00001.955491,-00000.492110,-00000.117430,-00000.610900,-00000.109459,00000.041386,-00000.218117
0000000000717,00002.360000,00001.654199,00002.572634,00002.954065,00002.900447,00002.938852,00002.793721,00003.286806,00002.389637,00001.954041,-00000.491753,-00000.117429,-00000.610793,-00000.109282,00000.041596,-00000.217808
0000000000718,00002.360523,00001.653838,00002.572927,00002.954296,00002.900267,00002.938790,00002.793479,00003.286973,00002.389392,00001.952767,-00000.491492,-00000.117383,-00000.610395,-00000.109146,00000.042125,-00000.217971
0000000000719,00002.360614,00001.653467,00002.572467,00002.954500,00002.900148,00002.938648,00002.793330,00003.287103,00002.389110,00001.951533,-00000.491188,-00000.117382,-00000.610304,-00000.108995,00000.042666,-00000.218434
0000000000720,00002.361060,00001.653160,00002.572354,00002.954697,00002.899996,00002.938595,00002.793487,00003.287245,00002.389264,00001.950448,-00000.490966,-00000.117705,-00000.610327,-00000.108878,00000.042754,-00000.218936
0000000000721,00002.361500,00001.652845,00002.572325,00002.954871,00002.899894,00002.938473,00002.793360,00003.287356,00002.389023,00001.949760,-00000.490707,-00000.117704,-00000.610250,-00000.108750,00000.042852,-00000.219693
0000000000722,00002.361154,00001.652583,00002.571503,00002.955039,00002.899402,00002.938429,00002.793131,00003.286751,00002.388792,00001.948111,-00000.490518,-00000.117616,-00000.609907,-00000.108651,00000.042927,-00000.220120
0000000000723,00002.361529,00001.652315,00002.571479,00002.955550,00002.899678,00002.938688,00002.793385,00003.287208,00002.388950,00001.947163,-00000.490297,-00000.117615,-00000.609478,-00000.108542,00000.042647,-00000.220039
0000000000724,00002.361960,00001.652092,00002.571505,00002.955692,00002.899621,00002.938650,00002.793190,00003.287419,00002.388753,00001.946485,-00000.490136,-00000.117541,-00000.609186,-00000.108458,00000.042711,-00000.220039
0000000000725,00002.361916,00001.651864,00002.571484,00002.956127,00002.899494,00002.938871,00002.793044,00003.287445,00002.388525,00001.945315,-00000.489949,-00000.117177,-00000.608822,-00000.108365,00000.043199,-00000.219970
0000000000726,00002.361557,00001.652037,00002.570780,00002.956612,00002.899446,00002.938838,00002.792878,00003.287262,00002.388720,00001.944012,-00000.489812,-00000.116751,-00000.608573,-00000.108293,00000.042890,-00000.219971
0000000000727,00002.361157,00001.652205,00002.570399,00002.956982,00002.898975,00002.938663,00002.793116,00003.286921,00002.388888,00001.943016,-00000.489289,-00000.116804,-00000.608625,-00000.108214,00000.042580,-00000.219549
0000000000728,00002.361577,00001.652353,00002.570526,00002.957394,00002.898571,00002.938998,00002.792975,00003.287128,00002.388691,00001.942269,-00000.488810,-00000.116441,-00000.608414,-00000.108153,00000.042680,-00000.219550
0000000000729,00002.361599,00001.652496,00002.570202,00002.957709,00002.898169,00002.939212,00002.792815,00003.287201,00002.388472,00001.941421,-00000.488365,-00000.116124,-00000.608095,-00000.108085,00000.043141,-00000.219554
0000000000730,00002.361594,00001.652621,00002.569947,00002.957698,00002.898188,00002.938772,00002.793057,00003.287014,00002.388667,00001.940786,-00000.487594,-00000.115815,-00000.607915,-00000.108033,00000.043589,-00000.219554
0000000000731,00002.361976,00001.653106,00002.569671,00002.957966,00002.897847,00002.938229,00002.792921,00003.286351,00002.388843,00001.939701,-00000.486852,-00000.115545,-00000.607644,-00000.107976,00000.043619,-00000.219557
0000000000732,00002.362334,00001.653576,00002.569454,00002.958319,00002.897863,00002.938217,00002.793128,00003.286554,00002.389372,00001.939160,-00000.486196,-00000.115282,-00000.607854,-00000.107932,00000.043638,-00000.219558
0000000000733,00002.363022,00001.653989,00002.569582,00002.958547,00002.897935,00002.938480,00002.793012,00003.286715,00002.389522,00001.938600,-00000.485565,-00000.115052,-00000.607986,-00000.108245,00000.043301,-00000.219198
0000000000734,00002.363327,00001.654388,00002.569397,00002.958847,00002.897586,00002.938469,00002.792825,00003.286526,00002.389610,00001.937776,-00000.485006,-00000.114828,-00000.608164,-00000.108571,00000.042591,-00000.219198
0000000000735,00002.363550,00001.655102,00002.569143,00002.959042,00002.898010,00002.937968,00002.793089,00003.286300,00002.390100,00001.937299,-00000.484469,-00000.114995,-00000.608277,-00000.108838,00000.041941,-00000.219254
0000000000736,00002.363810,00001.655443,00002.568986,00002.959297,00002.898076,00002.937959,00002.792930,00003.286502,00002.390175,00001.937324,-00000.483993,-00000.114804,-00000.608428,-00000.109115,00000.040974,-00000.219618
0000000000737,00002.363999,00001.656051,00002.568770,00002.959100,00002.898437,00002.937895,00002.793155,00003.286309,00002.390592,00001.936918,-00000.483536,-00000.114584,-00000.608524,-00000.108979,00000.040421,-00000.220391
0000000000738,00002.364583,00001.656340,00002.568999,00002.959318,00002.898493,00002.937887,00002.793019,00003.286481,00002.391018,00001.936576,-00000.483131,-00000.114421,-00000.608653,-00000.109215,00000.039960,-00000.221426
0000000000739,00002.364744,00001.656858,00002.568815,00002.959150,00002.898800,00002.937832,00002.793210,00003.286680,00002.391011,00001.936230,-00000.482741,-00000.114233,-00000.608735,-00000.109463,00000.039489,-00000.222084
0000000000740,00002.364879,00001.657830,00002.568647,00002.958972,00002.899211,00002.937826,00002.793095,00003.286463,00002.391374,00001.935939,-00000.482397,-00000.114095,-00000.608845,-00000.109300,00000.039460,-00000.222602
0000000000741,00002.365016,00001.658634,00002.568490,00002.959555,00002.899109,00002.937779,00002.793258,00003.286270,00002.391730,00001.935645,-00000.482065,-00000.113935,-00000.608551,-00000.109148,00000.039059,-00000.222800
0000000000742,00002.365130,00001.659461,00002.567985,00002.959767,00002.899096,00002.937774,00002.793523,00003.286086,00002.392039,00001.935397,-00000.481772,-00000.113818,-00000.608282,-00000.109010,00000.038309,-00000.222515
0000000000743,00002.364885,00001.659420,00002.568214,00002.959537,00002.899010,00002.937734,00002.793298,00003.286284,00002.391980,00001.935509,-00000.481127,-00000.113682,-00000.608032,-00000.108881,00000.037604,-00000.221958
0000000000744,00002.364619,00001.659399,00002.568146,00002.959354,00002.898636,00002.937730,00002.792798,00003.286490,00002.391517,00001.935298,-00000.480514,-00000.113582,-00000.607803,-00000.108763,00000.036966,-00000.221353
0000000000745,00002.364410,00001.659363,00002.567979,00002.959159,00002.898562,00002.937696,00002.792607,00003.286658,00002.391104,00001.935031,-00000.480328,-00000.113466,-00000.607953,-00000.109016,00000.036003,-00000.220879
0000000000746,00002.363821,00001.658982,00002.567921,00002.958641,00002.898969,00002.937692,00002.792907,00003.286834,00002.390710,00001.934851,-00000.480169,-00000.113380,-00000.607758,-00000.108916,00000.035097,-00000.220727
0000000000747,00002.363280,00001.658589,00002.568141,00002.958837,00002.899270,00002.938026,00002.793107,00003.286977,00002.390358,00001.933173,-00000.479648,-00000.113282,-00000.607523,-00000.108768,00000.034640,-00000.220686
0000000000748,00002.362053,00001.657903,00002.568092,00002.959121,00002.899253,00002.938023,00002.793000,00003.287126,00002.390023,00001.930480,-00000.479513,-00000.113209,-00000.607357,-00000.108683,00000.034231,-00000.220919
0000000000749,00002.360867,00001.657205,00002.567917,00002.958563,00002.899509,00002.937944,00002.793170,00003.287249,00002.389724,00001.927963,-00000.479431,-00000.113125,-00000.607157,-00000.108557,00000.034206,-00000.221609
0000000000750,00002.359460,00001.656621,00002.567512,00002.958442,00002.899133,00002.937579,00002.793441,00003.287013,00002.389438,00001.925308,-00000.479316,-00000.113064,-00000.607016,-00000.108485,00000.033857,-00000.222171
0000000000751,00002.358450,00001.656027,00002.567363,00002.957967,00002.899350,00002.937512,00002.793224,00003.287117,00002.388820,00001.923165,-00000.479247,-00000.112992,-00000.606846,-00000.108378,00000.033473,-00000.222759
0000000000752,00002.357615,00001.655529,00002.567381,00002.957864,00002.899030,00002.937564,00002.793092,00003.287279,00002.388577,00001.921268,-00000.479150,-00000.112577,-00000.606363,-00000.108316,00000.033176,-00000.223236
0000000000753,00002.356393,00001.655387,00002.567254,00002.957822,00002.898489,00002.937507,00002.793269,00003.287005,00002.388414,00001.919080,-00000.479091,-00000.112153,-00000.606218,-00000.108225,00000.032849,-00000.224100
0000000000754,00002.356045,00001.654963,00002.567270,00002.957372,00002.898579,00002.937551,00002.793157,00003.287143,00002.388208,00001.916740,-00000.479007,-00000.112162,-00000.606532,-00000.108535,00000.032597,-00000.224869
0000000000755,00002.356092,00001.654841,00002.566799,00002.957336,00002.898482,00002.937502,00002.792945,00003.286909,00002.388069,00001.913789,-00000.478957,-00000.112164,-00000.607134,-00000.109183,00000.031955,-00000.225604
0000000000756,00002.356522,00001.654481,00002.566812,00002.957316,00002.898196,00002.937540,00002.792850,00003.287389,00002.387893,00001.912522,-00000.478886,-00000.112172,-00000.607764,-00000.109447,00000.031740,-00000.226259
0000000000757,00002.356562,00001.654740,00002.566774,00002.956923,00002.898113,00002.937136,00002.793032,00003.287191,00002.387774,00001.911462,-00000.478844,-00000.112174,-00000.607914,-00000.109636,00000.031557,-00000.226885
0000000000758,00002.356928,00001.654796,00002.567148,00002.956905,00002.898595,00002.937167,00002.793314,00003.287237,00002.387624,00001.912923,-00000.478783,-00000.112181,-00000.607725,-00000.109498,00000.031374,-00000.227443
0000000000759,00002.356962,00001.654654,00002.567116,00002.956571,00002.898524,00002.936823,00002.793469,00003.287430,00002.387524,00001.914559,-00000.478747,-00000.112182,-00000.607490,-00000.109659,00000.031218,-00000.227613
0000000000760,00002.357273,00001.654701,00002.567434,00002.956193,00002.898572,00002.936850,00002.793346,00003.287470,00002.387396,00001.915803,-00000.478696,-00000.112188,-00000.607692,-00000.109904,00000.031062,-00000.227362
0000000000761,00002.358028,00001.655306,00002.567044,00002.956634,00002.898149,00002.936921,00002.793115,00003.287272,00002.387673,00001.916834,-00000.479028,-00000.112189,-00000.607855,-00000.110041,00000.030566,-00000.227143
0000000000762,00002.358656,00001.655709,00002.566952,00002.956312,00002.898189,00002.936944,00002.793011,00003.287305,00002.387565,00001.917892,-00000.479347,-00000.112194,-00000.608026,-00000.110250,00000.030071,-00000.226930
0000000000763,00002.359299,00001.655861,00002.566620,00002.956687,00002.898192,00002.937003,00002.792814,00003.287136,00002.387801,00001.919133,-00000.479629,-00000.112195,-00000.608165,-00000.110366,00000.030012,-00000.227107
0000000000764,00002.359833,00001.656567,00002.566179,00002.957139,00002.898227,00002.937023,00002.793088,00003.286802,00002.388071,00001.920034,-00000.479901,-00000.112199,-00000.608311,-00000.110544,00000.029953,-00000.227288
0000000000765,00002.360380,00001.657060,00002.566259,00002.957459,00002.898229,00002.937074,00002.793284,00003.286659,00002.388635,00001.921090,-00000.480141,-00000.112200,-00000.608429,-00000.110643,00000.029540,-00000.227076
0000000000766,00002.360472,00001.657298,00002.565884,00002.957118,00002.898258,00002.936727,00002.793154,00003.286374,00002.388865,00001.921857,-00000.480373,-00000.112204,-00000.608554,-00000.110795,00000.029127,-00000.226867
0000000000767,00002.360938,00001.657354,00002.564138,00002.957390,00002.898261,00002.936771,00002.793320,00003.286615,00002.388982,00001.922756,-00000.480577,-00000.112204,-00000.609017,-00000.110879,00000.029138,-00000.227049
0000000000768,00002.361379,00001.657557,00002.562367,00002.957462,00002.898648,00002.936476,00002.793572,00003.286372,00002.389540,00001.923409,-00000.480774,-00000.112207,-00000.609123,-00000.111008,00000.029149,-00000.227235
0000000000769,00002.361776,00001.657605,00002.560881,00002.956968,00002.898650,00002.936150,00002.793352,00003.286214,00002.389277,00001.924174,-00000.480586,-00000.112571,-00000.609517,-00000.111080,00000.029159,-00000.227027
0000000000770,00002.362151,00001.657777,00002.559011,00002.957393,00002.898617,00002.936262,00002.793566,00003.286008,00002.389390,00001.924730,-00000.481116,-00000.112936,-00000.609970,-00000.111190,00000.029168,-00000.227185
0000000000771,00002.362489,00001.657818,00002.557382,00002.957698,00002.898619,00002.936710,00002.793378,00003.286236,00002.389529,00001.925381,-00000.481681,-00000.112883,-00000.609943,-00000.111251,00000.029176,-00000.227008
0000000000772,00002.362809,00001.657965,00002.556153,00002.957333,00002.898591,00002.936443,00002.793198,00003.286424,00002.389262,00001.926217,-00000.482133,-00000.113194,-00000.609966,-00000.111344,00000.028822,-00000.226416
0000000000773,00002.363459,00001.658000,00002.555130,00002.957230,00002.898955,00002.936461,00002.793038,00003.286981,00002.389380,00001.927135,-00000.482251,-00000.113511,-00000.609580,-00000.111396,00000.028466,-00000.226266
0000000000774,00002.364094,00001.658125,00002.553721,00002.957646,00002.898569,00002.936596,00002.792885,00003.287140,00002.389516,00001.927484,-00000.482635,-00000.113413,-00000.609962,-00000.111476,00000.028889,-00000.226125
0000000000775,00002.364284,00001.658154,00002.552487,00002.957558,00002.898153,00002.936612,00002.792748,00003.287252,00002.389254,00001.927902,-00000.482736,-00000.113683,-00000.610722,-00000.111520,00000.029312,-00000.225997
0000000000776,00002.364462,00001.658261,00002.550924,00002.957912,00002.897824,00002.936727,00002.792618,00003.287387,00002.389369,00001.928199,-00000.482701,-00000.113963,-00000.611047,-00000.111951,00000.029673,-00000.225877
0000000000777,00002.364624,00001.658649,00002.549874,00002.958200,00002.898196,00002.936741,00002.792865,00003.287482,00002.389872,00001.928555,-00000.482786,-00000.114193,-00000.611331,-00000.111988,00000.030032,-00000.225406
0000000000778,00002.364776,00001.658740,00002.548907,00002.958138,00002.898641,00002.936476,00002.793116,00003.287598,00002.389970,00001.928808,-00000.482756,-00000.114431,-00000.611971,-00000.111992,00000.030339,-00000.224941
0000000000779,00002.364551,00001.659070,00002.548012,00002.958021,00002.898958,00002.936124,00002.793689,00003.287679,00002.390398,00001.929111,-00000.482829,-00000.114626,-00000.612213,-00000.112387,00000.030646,-00000.224539
0000000000780,00002.364680,00001.659147,00002.547189,00002.958331,00002.898611,00002.936625,00002.793541,00003.287777,00002.390844,00001.928963,-00000.482440,-00000.114829,-00000.612395,-00000.112390,00000.030907,-00000.223781
0000000000781,00002.364852,00001.659065,00002.546790,00002.958594,00002.898881,00002.936688,00002.793303,00003.288208,00002.390845,00001.929584,-00000.482503,-00000.115358,-00000.612964,-00000.112726,00000.031168,-00000.223439
0000000000782,00002.365324,00001.659494,00002.546089,00002.959221,00002.898949,00002.937114,00002.793539,00003.288292,00002.391225,00001.929821,-00000.482534,-00000.115531,-00000.613118,-00000.113092,00000.031390,-00000.223156
0000000000783,00002.365833,00001.659787,00002.545750,00002.959444,00002.899178,00002.937168,00002.794062,00003.288660,00002.391952,00001.930350,-00000.482950,-00000.115619,-00000.613240,-00000.113378,00000.031612,-00000.223228
0000000000784,00002.366598,00001.660152,00002.545516,00002.959615,00002.899236,00002.937168,00002.793901,00003.289094,00002.392276,00001.931277,-00000.483340,-00000.115765,-00000.613372,-00000.113326,00000.032164,-00000.223350
0000000000785,00002.366306,00001.660402,00002.544865,00002.959443,00002.899431,00002.936851,00002.793983,00003.289044,00002.392532,00001.932815,-00000.483331,-00000.115477,-00000.613112,-00000.112844,00000.032716,-00000.223773
0000000000786,00002.366231,00001.660712,00002.544303,00002.959951,00002.899480,00002.936851,00002.794208,00003.289050,00002.392807,00001.933605,-00000.483301,-00000.115602,-00000.612861,-00000.112800,00000.033186,-00000.224240
0000000000787,00002.365982,00001.660562,00002.543748,00002.960167,00002.898921,00002.936944,00002.793916,00003.289008,00002.392662,00001.933826,-00000.483293,-00000.115720,-00000.612640,-00000.112753,00000.033293,-00000.224238
0000000000788,00002.365556,00001.660463,00002.543269,00002.960600,00002.898963,00002.936944,00002.794107,00003.288651,00002.392534,00001.933773,-00000.483267,-00000.115826,-00000.612790,-00000.112715,00000.033331,-00000.224272
0000000000789,00002.365344,00001.659610,00002.542797,00002.960421,00002.898487,00002.937023,00002.793858,00003.288614,00002.392410,00001.932873,-00000.482897,-00000.115926,-00000.612965,-00000.112675,00000.033784,-00000.224634
0000000000790,00002.364619,00001.658801,00002.542390,00002.960426,00002.898159,00002.937023,00002.794022,00003.288310,00002.392301,00001.931013,-00000.482512,-00000.116017,-00000.612729,-00000.112643,00000.034179,-00000.225026
0000000000791,00002.363713,00001.658074,00002.542714,00002.960637,00002.897754,00002.937091,00002.793810,00003.288280,00002.391833,00001.928796,-00000.482198,-00000.115739,-00000.612515,-00000.112609,00000.034565,-00000.225333
0000000000792,00002.362370,00001.657385,00002.543092,00002.960642,00002.897838,00002.937091,00002.793949,00003.288384,00002.391740,00001.926850,-00000.481507,-00000.115817,-00000.612315,-00000.112219,00000.034901,-00000.225304
0000000000793,00002.360873,00001.656766,00002.544094,00002.960821,00002.897856,00002.936785,00002.794131,00003.287995,00002.391342,00001.923874,-00000.480877,-00000.115943,-00000.612132,-00000.112189,00000.035230,-00000.225203
0000000000794,00002.360455,00001.655817,00002.545142,00002.960462,00002.897202,00002.936785,00002.793524,00003.288083,00002.390900,00001.920404,-00000.480652,-00000.116009,-00000.612324,-00000.112583,00000.035516,-00000.225178
0000000000795,00002.360632,00001.655291,00002.546719,00002.960252,00002.897217,00002.936888,00002.793316,00003.288115,00002.390561,00001.918233,-00000.480478,-00000.116116,-00000.612169,-00000.112558,00000.036159,-00000.225092
0000000000796,00002.359913,00001.654845,00002.547974,00002.959946,00002.897386,00002.936525,00002.793525,00003.287827,00002.390547,00001.916730,-00000.479924,-00000.115809,-00000.611970,-00000.112530,00000.036402,-00000.225071
0000000000797,00002.359338,00001.654397,00002.548955,00002.959768,00002.897036,00002.936250,00002.792985,00003.287854,00002.390259,00001.915607,-00000.479413,-00000.115538,-00000.611838,-00000.112509,00000.036587,-00000.224998
0000000000798,00002.358727,00001.654018,00002.550023,00002.960233,00002.897180,00002.936304,00002.792800,00003.288335,00002.390247,00001.914691,-00000.478941,-00000.115277,-00000.611668,-00000.112486,00000.036794,-00000.224980
0000000000799,00002.358600,00001.653636,00002.550132,00002.960444,00002.896882,00002.936432,00002.792703,00003.288358,00002.390364,00001.913372,-00000.478143,-00000.115046,-00000.611556,-00000.112830,00000.036951,-00000.224918
0000000000800,00002.358442,00001.653676,00002.549591,00002.960114,00002.897005,00002.936115,00002.792908,00003.288042,00002.390355,00001.914769,-00000.477379,-00000.114824,-00000.611411,-00000.112810,00000.037490,-00000.224540
0000000000801,00002.358697,00001.653714,00002.549684,00002.960293,00002.897477,00002.936225,00002.793552,00003.288424,00002.390817,00001.916549,-00000.476700,-00000.114627,-00000.611316,-00000.112741,00000.037987,-00000.224487
0000000000802,00002.358925,00001.653748,00002.549585,00002.960376,00002.897581,00002.936318,00002.793726,00003.288518,00002.391172,00001.917737,-00000.476049,-00000.114438,-00000.611193,-00000.113087,00000.038083,-00000.224165
0000000000803,00002.359505,00001.653780,00002.548939,00002.960528,00002.897257,00002.936411,00002.793549,00003.288843,00002.391203,00001.918890,-00000.475471,-00000.114634,-00000.611111,-00000.113390,00000.038143,-00000.224120
0000000000804,00002.359699,00001.654172,00002.548492,00002.960599,00002.896983,00002.936490,00002.793697,00003.288560,00002.391504,00001.919902,-00000.474916,-00000.114835,-00000.611369,-00000.113685,00000.037862,-00000.223846
0000000000805,00002.360193,00001.654562,00002.548305,00002.960729,00002.897070,00002.936569,00002.793546,00003.288474,00002.391531,00001.920883,-00000.474424,-00000.114639,-00000.611300,-00000.113943,00000.037550,-00000.223082
0000000000806,00002.360721,00001.654896,00002.548287,00002.960426,00002.897563,00002.936274,00002.793672,00003.288596,00002.391425,00001.922107,-00000.473953,-00000.114448,-00000.611520,-00000.114194,00000.037674,-00000.222486
0000000000807,00002.361142,00001.655228,00002.548127,00002.960173,00002.897637,00002.935979,00002.793906,00003.288523,00002.391447,00001.923668,-00000.473534,-00000.114280,-00000.611461,-00000.114414,00000.037771,-00000.221835
0000000000808,00002.361591,00001.655512,00002.547750,00002.960278,00002.897693,00002.936090,00002.794014,00003.288264,00002.391720,00001.925073,-00000.473132,-00000.114481,-00000.611648,-00000.114627,00000.037876,-00000.221328
0000000000809,00002.361586,00001.656158,00002.547251,00002.960063,00002.897756,00002.935839,00002.794213,00003.288202,00002.392102,00001.926765,-00000.472775,-00000.114701,-00000.611598,-00000.114815,00000.038322,-00000.220774
0000000000810,00002.361969,00001.656400,00002.546930,00002.960153,00002.897441,00002.935933,00002.793942,00003.288344,00002.391971,00001.927961,-00000.472434,-00000.114871,-00000.611757,-00000.114634,00000.038774,-00000.220705
0000000000811,00002.362327,00001.656586,00002.546868,00002.959970,00002.897495,00002.936082,00002.793749,00003.288291,00002.391933,00001.929764,-00000.472130,-00000.114696,-00000.611714,-00000.114430,00000.039517,-00000.220234
0000000000812,00002.362291,00001.656792,00002.546594,00002.960046,00002.897590,00002.935800,00002.793881,00003.288049,00002.392185,00001.930782,-00000.472202,-00000.114841,-00000.611487,-00000.114639,00000.039902,-00000.219812
0000000000813,00002.362596,00001.656951,00002.546542,00002.959890,00002.897998,00002.935564,00002.794079,00003.288004,00002.392515,00001.931591,-00000.472306,-00000.115055,-00000.611450,-00000.114829,00000.040171,-00000.219411
0000000000814,00002.362564,00001.657489,00002.546672,00002.959955,00002.898442,00002.935686,00002.794192,00003.288161,00002.392730,00001.932458,-00000.472367,-00000.115178,-00000.611257,-00000.114643,00000.040861,-00000.219052
0000000000815,00002.362461,00001.657625,00002.546627,00002.959822,00002.898790,00002.935848,00002.794360,00003.288123,00002.393011,00001.933147,-00000.472456,-00000.115360,-00000.611226,-00000.114442,00000.041453,-00000.218347
0000000000816,00002.363160,00001.657720,00002.548914,00002.960240,00002.899167,00002.936315,00002.794093,00003.288619,00002.393193,00001.934247,-00000.472145,-00000.115465,-00000.611061,-00000.114284,00000.041678,-00000.217679
0000000000817,00002.363435,00001.657835,00002.549964,00002.960127,00002.899101,00002.936090,00002.794237,00003.288587,00002.393433,00001.934834,-00000.471858,-00000.115258,-00000.611035,-00000.114113,00000.042182,-00000.217079
0000000000818,00002.364030,00001.657916,00002.550823,00002.960120,00002.899422,00002.936125,00002.794372,00003.289009,00002.393588,00001.935045,-00000.471593,-00000.114984,-00000.610532,-00000.113979,00000.042737,-00000.216873
0000000000819,00002.364264,00001.658014,00002.550266,00002.960387,00002.899365,00002.936296,00002.794132,00003.289344,00002.393792,00001.935182,-00000.471349,-00000.115170,-00000.610510,-00000.113833,00000.043166,-00000.216725
0000000000820,00002.364408,00001.658083,00002.550997,00002.960381,00002.899276,00002.936326,00002.793884,00003.289704,00002.393924,00001.935362,-00000.471124,-00000.115300,-00000.610081,-00000.113719,00000.043275,-00000.216550
0000000000821,00002.364608,00001.658167,00002.551611,00002.960971,00002.899228,00002.936835,00002.793680,00003.290352,00002.394461,00001.935478,-00000.470553,-00000.115096,-00000.609699,-00000.113594,00000.043640,-00000.216424
0000000000822,00002.364367,00001.658225,00002.551871,00002.960966,00002.899152,00002.936860,00002.793469,00003.290659,00002.394936,00001.935631,-00000.470361,-00000.114843,-00000.609698,-00000.113497,00000.044458,-00000.216275
0000000000823,00002.364174,00001.658659,00002.552394,00002.961468,00002.899110,00002.936930,00002.793657,00003.290485,00002.396118,00001.935367,-00000.470238,-00000.115032,-00000.609373,-00000.113391,00000.045132,-00000.216530
0000000000824,00002.363969,00001.659072,00002.552615,00002.961101,00002.899046,00002.936589,00002.793841,00003.290383,00002.397249,00001.935497,-00000.470075,-00000.114818,-00000.609008,-00000.113309,00000.045829,-00000.216403
0000000000825,00002.364168,00001.659804,00002.553060,00002.961166,00002.899374,00002.936649,00002.794364,00003.290234,00002.398618,00001.935998,-00000.470333,-00000.114978,-00000.608369,-00000.112856,00000.046040,-00000.216258
0000000000826,00002.364356,00001.660156,00002.553611,00002.961942,00002.899319,00002.936721,00002.794157,00003.290873,00002.399580,00001.937923,-00000.470556,-00000.115158,-00000.607696,-00000.112785,00000.046270,-00000.216150
0000000000827,00002.364162,00001.660779,00002.553990,00002.963085,00002.899235,00002.936772,00002.794240,00003.290747,00002.400746,00001.939801,-00000.470776,-00000.114932,-00000.607151,-00000.112400,00000.046449,-00000.215663
0000000000828,00002.364323,00001.661078,00002.553008,00002.964471,00002.899188,00002.937196,00002.794064,00003.290565,00002.401565,00001.941077,-00000.470967,-00000.115085,-00000.606941,-00000.112340,00000.047008,-00000.215208
0000000000829,00002.364883,00001.661246,00002.552605,00002.965082,00002.899479,00002.937602,00002.794135,00003.291184,00002.401469,00001.942312,-00000.471153,-00000.114893,-00000.606841,-00000.112012,00000.047887,-00000.214795
0000000000830,00002.364294,00001.660775,00002.552131,00002.965173,00002.899440,00002.937600,00002.793985,00003.291029,00002.401077,00001.943036,-00000.470953,-00000.115024,-00000.606299,-00000.111598,00000.049088,-00000.214407
0000000000831,00002.363683,00001.660192,00002.551788,00002.965330,00002.899325,00002.937583,00002.793682,00003.290829,00002.400633,00001.943725,-00000.470749,-00000.114860,-00000.605488,-00000.111318,00000.050198,-00000.214055
0000000000832,00002.362819,00001.659791,00002.551385,00002.965045,00002.899654,00002.937219,00002.793917,00003.290698,00002.400663,00001.944341,-00000.470578,-00000.114608,-00000.605027,-00000.110966,00000.050858,-00000.213725
0000000000833,00002.361936,00001.659295,00002.551093,00002.965179,00002.899919,00002.937205,00002.794022,00003.290891,00002.400284,00001.944927,-00000.470405,-00000.114469,-00000.604699,-00000.110728,00000.051804,-00000.213425
0000000000834,00002.361200,00001.658591,00002.550750,00002.964937,00002.899836,00002.937257,00002.793860,00003.291141,00002.400310,00001.945452,-00000.470260,-00000.114254,-00000.604306,-00000.110428,00000.053091,-00000.213144
0000000000835,00002.360086,00001.658169,00002.550139,00002.964325,00002.899699,00002.936882,00002.793586,00003.290580,00002.399625,00001.945588,-00000.470112,-00000.114136,-00000.604027,-00000.109863,00000.054259,-00000.212889
0000000000836,00002.359097,00001.657932,00002.550572,00002.964118,00002.899991,00002.936927,00002.793811,00003.290431,00002.399646,00001.946035,-00000.469625,-00000.113953,-00000.603330,-00000.109245,00000.055355,-00000.213013
0000000000837,00002.358511,00001.657573,00002.551140,00002.964323,00002.899875,00002.936971,00002.793578,00003.290316,00002.399426,00001.947239,-00000.469137,-00000.113852,-00000.602730,-00000.108764,00000.056349,-00000.212795
0000000000838,00002.357669,00001.657371,00002.551146,00002.964510,00002.899761,00002.937009,00002.793769,00003.289826,00002.399444,00001.948345,-00000.468723,-00000.113697,-00000.601774,-00000.108237,00000.057282,-00000.212538
0000000000839,00002.357170,00001.657065,00002.551630,00002.964685,00002.899661,00002.937046,00002.793571,00003.289365,00002.399257,00001.949008,-00000.468307,-00000.113248,-00000.601263,-00000.107828,00000.058491,-00000.212353
0000000000840,00002.357904,00001.656894,00002.551272,00002.964481,00002.899564,00002.937441,00002.793371,00003.289311,00002.398910,00001.949586,-00000.467954,-00000.113116,-00000.600449,-00000.107017,00000.060010,-00000.212134
0000000000841,00002.358568,00001.656996,00002.550958,00002.964267,00002.899480,00002.937110,00002.793565,00003.289282,00002.399113,00001.949787,-00000.467600,-00000.113096,-00000.599651,-00000.106668,00000.061765,-00000.211976
0000000000842,00002.359193,00001.657213,00002.550291,00002.964456,00002.899397,00002.937084,00002.793757,00003.288873,00002.399543,00001.949191,-00000.467300,-00000.112984,-00000.598958,-00000.105978,00000.063422,-00000.211427
0000000000843,00002.359758,00001.657300,00002.550024,00002.964274,00002.899325,00002.937164,00002.793560,00003.288848,00002.400079,00001.948637,-00000.466999,-00000.112967,-00000.598641,-00000.105681,00000.064916,-00000.210930
0000000000844,00002.359927,00001.657847,00002.549456,00002.964435,00002.899255,00002.937142,00002.793723,00003.288862,00002.401170,00001.948130,-00000.467106,-00000.112872,-00000.598414,-00000.105094,00000.066326,-00000.210100
0000000000845,00002.360408,00001.658284,00002.548866,00002.964280,00002.899556,00002.937211,00002.793918,00003.288841,00002.402352,00001.947295,-00000.466850,-00000.112858,-00000.597782,-00000.104478,00000.067598,-00000.209314
0000000000846,00002.360553,00001.658750,00002.548019,00002.963691,00002.899496,00002.936829,00002.793695,00003.288853,00002.403281,00001.946500,-00000.466578,-00000.112776,-00000.596863,-00000.103615,00000.069161,-00000.208607
0000000000847,00002.360962,00001.659122,00002.547154,00002.964285,00002.899390,00002.936525,00002.793860,00003.288835,00002.404650,00001.945790,-00000.466360,-00000.112401,-00000.595962,-00000.102728,00000.070606,-00000.207938
0000000000848,00002.361448,00001.659519,00002.546434,00002.964872,00002.899339,00002.936562,00002.794033,00003.288846,00002.405441,00001.944751,-00000.466129,-00000.112332,-00000.595543,-00000.102357,00000.071937,-00000.207336
0000000000849,00002.362159,00001.659836,00002.545697,00002.965015,00002.899612,00002.936666,00002.794174,00003.289193,00002.406606,00001.944146,-00000.466306,-00000.112376,-00000.595501,-00000.101964,00000.072805,-00000.206766
0000000000850,00002.362935,00001.660173,00002.545084,00002.965152,00002.899931,00002.936336,00002.794321,00003.289202,00002.407643,00001.943624,-00000.466472,-00000.112317,-00000.595144,-00000.102011,00000.073575,-00000.206254
0000000000851,00002.363541,00001.660443,00002.544456,00002.965636,00002.899800,00002.936787,00002.794078,00003.289498,00002.408635,00001.943472,-00000.466622,-00000.112354,-00000.594746,-00000.101677,00000.073951,-00000.205406
0000000000852,00002.363839,00001.660730,00002.544660,00002.965753,00002.900072,00002.936868,00002.794203,00003.289868,00002.409154,00001.943753,-00000.466763,-00000.112666,-00000.594442,-00000.101353,00000.074607,-00000.204970
0000000000853,00002.363991,00001.660597,00002.544489,00002.965802,00002.899598,00002.937252,00002.793997,00003.290120,00002.409999,00001.943624,-00000.466892,-00000.112698,-00000.594466,-00000.101069,00000.075290,-00000.204612
0000000000854,00002.364245,00001.660842,00002.544662,00002.965902,00002.899830,00002.937321,00002.794103,00003.290435,00002.410804,00001.943863,-00000.467012,-00000.112601,-00000.594207,-00000.100794,00000.076211,-00000.204240
0000000000855,00002.364738,00001.661091,00002.544879,00002.965944,00002.900152,00002.937285,00002.794290,00003.291012,00002.411522,00001.945204,-00000.467121,-00000.112628,-00000.593865,-00000.100552,00000.076792,-00000.203572
0000000000856,00002.364591,00001.661299,00002.544664,00002.966391,00002.899986,00002.936981,00002.794381,00003.290918,00002.412208,00001.946133,-00000.467224,-00000.112546,-00000.594007,-00000.100680,00000.076487,-00000.202530
0000000000857,00002.364648,00001.661149,00002.544849,00002.966064,00002.899897,00002.936951,00002.794177,00003.290684,00002.412457,00001.947275,-00000.467316,-00000.112569,-00000.593353,-00000.100474,00000.076619,-00000.202324
0000000000858,00002.364885,00001.660963,00002.544665,00002.966082,00002.899393,00002.937418,00002.793892,00003.290603,00002.412677,00001.947703,-00000.467404,-00000.112499,-00000.593112,-00000.100221,00000.077086,-00000.202526
0000000000859,00002.364571,00001.661198,00002.544460,00002.966529,00002.899318,00002.937392,00002.794081,00003.290404,00002.413252,00001.947224,-00000.467483,-00000.112519,-00000.592555,-00000.100046,00000.077924,-00000.202713
0000000000860,00002.364773,00001.661403,00002.544667,00002.966545,00002.899614,00002.937427,00002.794201,00003.290698,00002.413803,00001.947226,-00000.467557,-00000.112459,-00000.592349,-00000.099830,00000.078321,-00000.202159
0000000000861,00002.365231,00001.661240,00002.544855,00002.966926,00002.899550,00002.937767,00002.794362,00003.291254,00002.414292,00001.948269,-00000.467262,-00000.112113,-00000.592238,-00000.099680,00000.078309,-00000.201230
0000000000862,00002.365404,00001.661052,00002.544668,00002.967664,00002.899077,00002.938160,00002.794101,00003.291142,00002.414761,00001.948633,-00000.467325,-00000.112062,-00000.592425,-00000.099497,00000.077921,-00000.200396
0000000000863,00002.365793,00001.660913,00002.544828,00002.968351,00002.899022,00002.938450,00002.793875,00003.291252,00002.415178,00001.948070,-00000.467436,-00000.112130,-00000.592331,-00000.099370,00000.078636,-00000.200331
0000000000864,00002.366303,00001.661115,00002.545032,00002.968980,00002.898982,00002.938784,00002.793653,00003.291883,00002.415939,00001.947655,-00000.467853,-00000.112087,-00000.592490,-00000.099213,00000.079395,-00000.200709
0000000000865,00002.366635,00001.661360,00002.545168,00002.969565,00002.898936,00002.939030,00002.793461,00003.291977,00002.416294,00001.946812,-00000.467947,-00000.112145,-00000.592410,-00000.099105,00000.080004,-00000.201016
0000000000866,00002.366706,00001.661532,00002.544978,00002.970463,00002.898902,00002.939315,00002.793635,00003.292150,00002.416943,00001.946096,-00000.467576,-00000.111745,-00000.591820,-00000.098972,00000.080649,-00000.200975
0000000000867,00002.366625,00001.661740,00002.545094,00002.971323,00002.899225,00002.939162,00002.794197,00003.292230,00002.417607,00001.945742,-00000.467294,-00000.111432,-00000.591751,-00000.098880,00000.081168,-00000.201237
0000000000868,00002.367048,00001.662250,00002.545296,00002.972088,00002.899559,00002.939041,00002.794708,00003.292015,00002.418160,00001.945495,-00000.467341,-00000.111454,-00000.591612,-00000.098767,00000.081355,-00000.201202
0000000000869,00002.366980,00001.662790,00002.545032,00002.972821,00002.899834,00002.939274,00002.794824,00003.291720,00002.418725,00001.944830,-00000.467464,-00000.111550,-00000.591917,-00000.099051,00000.081070,-00000.201062
0000000000870,00002.366977,00001.662498,00002.545204,00002.973109,00002.900118,00002.939171,00002.794896,00003.292263,00002.418833,00001.944620,-00000.467504,-00000.111570,-00000.591798,-00000.098955,00000.081229,-00000.201032
0000000000871,00002.366556,00001.662232,00002.544979,00002.973370,00002.899989,00002.939007,00002.794994,00003.291649,00002.418589,00001.943692,-00000.467608,-00000.111288,-00000.591695,-00000.099197,00000.081350,-00000.200913
0000000000872,00002.366192,00001.661984,00002.544762,00002.973252,00002.900231,00002.938919,00002.795055,00003.291023,00002.417954,00001.943150,-00000.467642,-00000.110942,-00000.591957,-00000.099477,00000.081123,-00000.200888
0000000000873,00002.366196,00001.661395,00002.544933,00002.972386,00002.900122,00002.939142,00002.795139,00003.291226,00002.417021,00001.943085,-00000.468094,-00000.111066,-00000.592231,-00000.099683,00000.080863,-00000.200786
0000000000874,00002.366248,00001.661183,00002.544749,00002.971560,00002.899965,00002.939430,00002.795191,00003.290693,00002.416119,00001.942261,-00000.468486,-00000.111133,-00000.592454,-00000.099922,00000.079944,-00000.200765
0000000000875,00002.365526,00001.660319,00002.544532,00002.970097,00002.899509,00002.939257,00002.794900,00003.290503,00002.414961,00001.939304,-00000.468870,-00000.111239,-00000.592688,-00000.100098,00000.079359,-00000.200679
0000000000876,00002.364845,00001.659413,00002.544738,00002.968669,00002.899375,00002.939503,00002.794582,00003.290412,00002.413467,00001.936425,-00000.469204,-00000.111296,-00000.592515,-00000.100301,00000.078940,-00000.201023
0000000000877,00002.364230,00001.658315,00002.544916,00002.967423,00002.899350,00002.939355,00002.794333,00003.290613,00002.412482,00001.933545,-00000.469531,-00000.111023,-00000.592351,-00000.100451,00000.078442,-00000.201312
0000000000878,00002.364013,00001.657181,00002.545091,00002.966570,00002.899236,00002.939201,00002.794062,00003.290535,00002.411210,00001.930369,-00000.469815,-00000.110709,-00000.592567,-00000.100624,00000.077722,-00000.201605
0000000000879,00002.364216,00001.656609,00002.545243,00002.965872,00002.899215,00002.939076,00002.794214,00003.289981,00002.410371,00001.927554,-00000.470094,-00000.110840,-00000.593153,-00000.101114,00000.076211,-00000.201126
0000000000880,00002.364031,00001.656006,00002.545029,00002.965146,00002.899118,00002.938582,00002.794346,00003.289552,00002.409651,00001.924851,-00000.470335,-00000.110935,-00000.593699,-00000.101624,00000.075235,-00000.200650
0000000000881,00002.363840,00001.655519,00002.545158,00002.964552,00002.899099,00002.938112,00002.794475,00003.289080,00002.408938,00001.922454,-00000.470210,-00000.110683,-00000.594198,-00000.102041,00000.074674,-00000.200605
0000000000882,00002.364046,00001.655006,00002.545339,00002.963934,00002.898654,00002.938055,00002.794225,00003.289078,00002.407962,00001.920878,-00000.470053,-00000.110402,-00000.594300,-00000.102112,00000.074206,-00000.200563
0000000000883,00002.363884,00001.654591,00002.545086,00002.963428,00002.898639,00002.937655,00002.794335,00003.288676,00002.407354,00001.919201,-00000.469946,-00000.110551,-00000.593999,-00000.102105,00000.073365,-00000.200887
0000000000884,00002.363333,00001.654155,00002.544878,00002.962539,00002.898622,00002.937243,00002.794121,00003.288311,00002.406523,00001.917859,-00000.469812,-00000.110311,-00000.593724,-00000.102166,00000.072604,-00000.201213
0000000000885,00002.363195,00001.653802,00002.545025,00002.962109,00002.898972,00002.937266,00002.794215,00003.288332,00002.406006,00001.918971,-00000.469721,-00000.110075,-00000.593468,-00000.102159,00000.071888,-00000.201127
0000000000886,00002.363452,00001.653430,00002.544847,00002.961715,00002.898595,00002.937278,00002.794034,00003.288384,00002.405662,00001.920368,-00000.469607,-00000.109871,-00000.593233,-00000.102211,00000.070878,-00000.201042
0000000000887,00002.363697,00001.653129,00002.544610,00002.960986,00002.898167,00002.936934,00002.793388,00003.288039,00002.404858,00001.921678,-00000.469893,-00000.110032,-00000.593015,-00000.102205,00000.070268,-00000.200605
0000000000888,00002.363916,00001.653539,00002.544459,00002.960650,00002.898209,00002.936582,00002.793596,00003.287721,00002.404928,00001.923230,-00000.470159,-00000.110221,-00000.592815,-00000.102249,00000.069771,-00000.200533
0000000000889,00002.364125,00001.653646,00002.544620,00002.960392,00002.898208,00002.936652,00002.793409,00003.287790,00002.404607,00001.925433,-00000.470039,-00000.109996,-00000.592629,-00000.101882,00000.069252,-00000.200162
0000000000890,00002.363585,00001.653994,00002.544491,00002.960469,00002.898244,00002.936352,00002.793586,00003.287519,00002.404666,00001.927117,-00000.469902,-00000.109794,-00000.592459,-00000.101919,00000.068466,-00000.199737
0000000000891,00002.363037,00001.654448,00002.544265,00002.960612,00002.898242,00002.936049,00002.793790,00003.287215,00002.404756,00001.928630,-00000.469800,-00000.109965,-00000.592664,-00000.101969,00000.067661,-00000.199421
0000000000892,00002.362941,00001.654381,00002.544155,00002.960678,00002.897910,00002.936519,00002.793578,00003.287347,00002.404443,00001.929338,-00000.469684,-00000.110156,-00000.592882,-00000.102364,00000.067355,-00000.199060
0000000000893,00002.363200,00001.654405,00002.543963,00002.961163,00002.897909,00002.936624,00002.793751,00003.287451,00002.404520,00001.929900,-00000.469597,-00000.110302,-00000.593419,-00000.102407,00000.067758,-00000.198791
0000000000894,00002.363843,00001.654349,00002.544233,00002.961219,00002.897989,00002.936662,00002.793934,00003.287563,00002.404254,00001.930866,-00000.469498,-00000.110465,-00000.593605,-00000.102380,00000.068223,-00000.198846
0000000000895,00002.363701,00001.654369,00002.544069,00002.961269,00002.897988,00002.936751,00002.793718,00003.287652,00002.403956,00001.931707,-00000.469424,-00000.110589,-00000.593337,-00000.102416,00000.068204,-00000.198979
0000000000896,00002.363161,00001.653958,00002.543935,00002.961316,00002.897693,00002.936783,00002.793148,00003.287385,00002.403730,00001.932167,-00000.469340,-00000.110727,-00000.593494,-00000.102393,00000.067873,-00000.199027
0000000000897,00002.363040,00001.653975,00002.544159,00002.960996,00002.897692,00002.936859,00002.792965,00003.287460,00002.403476,00001.932520,-00000.469277,-00000.110832,-00000.593992,-00000.102424,00000.067494,-00000.199140
0000000000898,00002.363305,00001.653988,00002.544045,00002.960674,00002.897442,00002.936886,00002.792842,00003.287596,00002.402920,00001.931097,-00000.469205,-00000.110950,-00000.594489,-00000.102768,00000.067213,-00000.199180
0000000000899,00002.363565,00001.654365,00002.543873,00002.960764,00002.897804,00002.936588,00002.793049,00003.287297,00002.402705,00001.929221,-00000.469152,-00000.111040,-00000.594912,-00000.102794,00000.067253,-00000.199277
0000000000900,00002.364154,00001.654376,00002.544139,00002.960489,00002.897953,00002.936611,00002.792944,00003.287412,00002.402594,00001.927284,-00000.469091,-00000.111141,-00000.595336,-00000.103086,00000.067014,-00000.198948
0000000000901,00002.364738,00001.654335,00002.543992,00002.960929,00002.897535,00002.937083,00002.792758,00003.287521,00002.402773,00001.924962,-00000.469045,-00000.111217,-00000.596059,-00000.103471,00000.066685,-00000.199031
0000000000902,00002.364876,00001.654344,00002.543493,00002.961421,00002.897662,00002.937102,00002.793032,00003.287256,00002.403043,00001.922587,-00000.468993,-00000.111302,-00000.596782,-00000.103720,00000.066482,-00000.198751
0000000000903,00002.365010,00001.654672,00002.543368,00002.961432,00002.898033,00002.937141,00002.793598,00003.287349,00002.403558,00001.920610,-00000.468954,-00000.111367,-00000.597397,-00000.104048,00000.066202,-00000.198458
0000000000904,00002.365128,00001.654680,00002.543669,00002.961488,00002.898141,00002.937158,00002.793468,00003.287486,00002.404150,00001.918951,-00000.468910,-00000.111440,-00000.597650,-00000.104260,00000.066028,-00000.197857
0000000000905,00002.365242,00001.654596,00002.543562,00002.961498,00002.897731,00002.937191,00002.793225,00003.287565,00002.404588,00001.916905,-00000.468877,-00000.111496,-00000.597811,-00000.104539,00000.065790,-00000.197245
0000000000906,00002.365343,00001.654965,00002.543818,00002.961546,00002.897823,00002.937205,00002.793478,00003.288045,00002.405092,00001.914768,-00000.469202,-00000.111558,-00000.598027,-00000.104719,00000.065280,-00000.197097
0000000000907,00002.365440,00001.655256,00002.543727,00002.961917,00002.897836,00002.937233,00002.793271,00003.287749,00002.405828,00001.912663,-00000.469537,-00000.111605,-00000.598527,-00000.104957,00000.064352,-00000.196938
0000000000908,00002.365525,00001.655934,00002.543583,00002.961957,00002.898277,00002.937246,00002.793485,00003.287795,00002.406620,00001.910844,-00000.469451,-00000.112020,-00000.599073,-00000.105110,00000.063554,-00000.196812
0000000000909,00002.365608,00001.656182,00002.543143,00002.962273,00002.897926,00002.937270,00002.793309,00003.287543,00002.407247,00001.909415,-00000.469373,-00000.112423,-00000.599498,-00000.105313,00000.063127,-00000.196677
0000000000910,00002.365681,00001.656396,00002.542657,00002.962308,00002.897576,00002.937280,00002.793129,00003.287219,00002.407921,00001.907866,-00000.469300,-00000.112414,-00000.599601,-00000.105443,00000.063174,-00000.196932
0000000000911,00002.365752,00001.656607,00002.542282,00002.962214,00002.897640,00002.937300,00002.792979,00003.287004,00002.408454,00001.906287,-00000.469596,-00000.112757,-00000.599600,-00000.105616,00000.063172,-00000.197180
0000000000912,00002.365813,00001.657152,00002.542231,00002.962243,00002.898067,00002.937309,00002.793189,00003.286729,00002.409028,00001.904968,-00000.469897,-00000.112749,-00000.600050,-00000.105727,00000.063212,-00000.197035
0000000000913,00002.365511,00001.657331,00002.541912,00002.961438,00002.898121,00002.936964,00002.793061,00003.286546,00002.409482,00001.903261,-00000.470149,-00000.113041,-00000.600412,-00000.105873,00000.063211,-00000.196520
0000000000914,00002.365926,00001.657070,00002.542232,00002.961100,00002.898485,00002.936608,00002.792877,00003.286311,00002.408882,00001.900687,-00000.470405,-00000.113398,-00000.600795,-00000.105968,00000.063245,-00000.196396
0000000000915,00002.365668,00001.656497,00002.542323,00002.961140,00002.898169,00002.936677,00002.792768,00003.286519,00002.408180,00001.898145,-00000.470620,-00000.113646,-00000.601104,-00000.105730,00000.063244,-00000.196321
0000000000916,00002.365659,00001.655549,00002.542232,00002.960852,00002.897753,00002.936737,00002.792248,00003.286682,00002.407307,00001.895954,-00000.470838,-00000.113949,-00000.601429,-00000.105448,00000.063273,-00000.196215
0000000000917,00002.365440,00001.654698,00002.542310,00002.960523,00002.898209,00002.936796,00002.792156,00003.286858,00002.406347,00001.893428,-00000.471021,-00000.114161,-00000.601692,-00000.105245,00000.063635,-00000.196514
0000000000918,00002.364707,00001.654254,00002.542232,00002.960279,00002.898218,00002.936847,00002.792439,00003.286997,00002.405966,00001.890837,-00000.471206,-00000.114419,-00000.601607,-00000.105005,00000.064748,-00000.196787
0000000000919,00002.363794,00001.653530,00002.541936,00002.959636,00002.898243,00002.936534,00002.792360,00003.286785,00002.404786,00001.887960,-00000.471362,-00000.114599,-00000.601468,-00000.104833,00000.065782,-00000.197042
0000000000920,00002.362807,00001.652789,00002.541507,00002.959065,00002.898251,00002.936215,00002.792601,00003.286540,00002.404099,00001.885392,-00000.471157,-00000.114456,-00000.601395,-00000.104265,00000.067092,-00000.197274
0000000000921,00002.362756,00001.652173,00002.541255,00002.959243,00002.898273,00002.936674,00002.792897,00003.286722,00002.403457,00001.882943,-00000.470926,-00000.114247,-00000.600914,-00000.104119,00000.068335,-00000.197491
0000000000922,00002.362278,00001.651179,00002.540890,00002.959120,00002.897916,00002.937128,00002.792739,00003.286876,00002.402872,00001.880757,-00000.471115,-00000.114125,-00000.600489,-00000.103998,00000.069088,-00000.197326
0000000000923,00002.361872,00001.650291,00002.541038,00002.958909,00002.897935,00002.937156,00002.792628,00003.287031,00002.401963,00001.878672,-00000.471281,-00000.113947,-00000.600079,-00000.103511,00000.069783,-00000.197147
0000000000924,00002.361466,00001.649808,00002.541090,00002.958804,00002.898357,00002.936817,00002.792857,00003.286800,00002.401465,00001.876811,-00000.471442,-00000.113843,-00000.599355,-00000.103046,00000.070061,-00000.197007
0000000000925,00002.361120,00001.649415,00002.541216,00002.958987,00002.898010,00002.936841,00002.792763,00003.286569,00002.401053,00001.876488,-00000.471221,-00000.113691,-00000.598643,-00000.102630,00000.070653,-00000.197218
0000000000926,00002.360411,00001.649004,00002.540897,00002.959260,00002.897644,00002.936915,00002.792594,00003.286372,00002.400630,00001.876354,-00000.470995,-00000.113240,-00000.598027,-00000.102234,00000.071252,-00000.197461
0000000000927,00002.360117,00001.649033,00002.541004,00002.959779,00002.898074,00002.936936,00002.793239,00003.286538,00002.400642,00001.876442,-00000.470807,-00000.113111,-00000.597784,-00000.101881,00000.071756,-00000.197640
0000000000928,00002.359876,00001.648682,00002.541096,00002.959649,00002.898125,00002.936999,00002.793459,00003.286734,00002.400644,00001.876691,-00000.470977,-00000.113090,-00000.597622,-00000.101907,00000.071904,-00000.197485
0000000000929,00002.359262,00001.648344,00002.540824,00002.959728,00002.898128,00002.937016,00002.793283,00003.286875,00002.400655,00001.876765,-00000.471180,-00000.112980,-00000.597778,-00000.101606,00000.072333,-00000.197275
0000000000930,00002.358695,00001.648409,00002.540540,00002.959980,00002.897809,00002.936707,00002.793107,00003.286316,00002.400294,00001.876978,-00000.471324,-00000.112962,-00000.597640,-00000.101628,00000.072458,-00000.197505
0000000000931,00002.358535,00001.648120,00002.541034,00002.960047,00002.897812,00002.936722,00002.792957,00003.286436,00002.399940,00001.877404,-00000.471497,-00000.112868,-00000.597410,-00000.101734,00000.072098,-00000.198052
0000000000932,00002.358052,00001.648176,00002.540792,00002.959899,00002.897903,00002.936459,00002.792807,00003.286323,00002.399996,00001.877584,-00000.471620,-00000.112853,-00000.597292,-00000.101753,00000.071842,-00000.198611
0000000000933,00002.358279,00001.647930,00002.541213,00002.959956,00002.897905,00002.936471,00002.792679,00003.286425,00002.399695,00001.877584,-00000.471767,-00000.112773,-00000.597096,-00000.101844,00000.071898,-00000.198713
0000000000934,00002.358231,00001.647614,00002.541732,00002.959830,00002.897620,00002.936610,00002.792552,00003.286691,00002.399379,00001.877738,-00000.471872,-00000.112760,-00000.596996,-00000.101860,00000.072406,-00000.198826
0000000000935,00002.358061,00001.647405,00002.541727,00002.959515,00002.897622,00002.936621,00002.792443,00003.286779,00002.399123,00001.877738,-00000.471634,-00000.112692,-00000.596830,-00000.101937,00000.072816,-00000.198914
0000000000936,00002.357657,00001.647136,00002.541807,00002.959408,00002.897379,00002.936739,00002.792335,00003.287005,00002.398854,00001.877869,-00000.471361,-00000.112681,-00000.596744,-00000.101950,00000.073248,-00000.199373
0000000000937,00002.357150,00001.646959,00002.541803,00002.959503,00002.897018,00002.936748,00002.792242,00003.286717,00002.398999,00001.876781,-00000.471521,-00000.112624,-00000.596965,-00000.102016,00000.073235,-00000.199810
0000000000938,00002.356806,00001.647093,00002.541870,00002.959775,00002.897174,00002.936848,00002.792512,00003.286910,00002.399133,00001.875441,-00000.471651,-00000.112977,-00000.597618,-00000.102028,00000.073240,-00000.200200
0000000000939,00002.356737,00001.647304,00002.542230,00002.959493,00002.897592,00002.936856,00002.792796,00003.287390,00002.398893,00001.874514,-00000.471788,-00000.112928,-00000.597806,-00000.102084,00000.073229,-00000.200573
0000000000940,00002.356444,00001.647418,00002.542287,00002.959724,00002.897725,00002.936579,00002.793026,00003.287191,00002.399007,00001.873737,-00000.471536,-00000.112866,-00000.597637,-00000.102093,00000.073596,-00000.200542
0000000000941,00002.356022,00001.647598,00002.542230,00002.960210,00002.897718,00002.936586,00002.793268,00003.286874,00002.399166,00001.873674,-00000.471652,-00000.112824,-00000.597434,-00000.102141,00000.073586,-00000.200497
0000000000942,00002.356136,00001.647695,00002.542279,00002.960769,00002.897832,00002.936712,00002.793464,00003.286705,00002.399263,00001.873374,-00000.471800,-00000.113134,-00000.597290,-00000.102149,00000.073899,-00000.200471
0000000000943,00002.356140,00001.647848,00002.542231,00002.960820,00002.897826,00002.937081,00002.793670,00003.286798,00002.399398,00001.872232,-00000.471899,-00000.113461,-00000.597480,-00000.102190,00000.074253,-00000.200795
0000000000944,00002.355874,00001.647931,00002.542273,00002.960934,00002.897922,00002.936826,00002.793837,00003.286654,00002.399481,00001.871252,-00000.472026,-00000.113725,-00000.597720,-00000.102197,00000.074519,-00000.201135
0000000000945,00002.355877,00001.647698,00002.542594,00002.960977,00002.897917,00002.937140,00002.794012,00003.287096,00002.399596,00001.870279,-00000.472110,-00000.114003,-00000.597882,-00000.102232,00000.074458,-00000.201411
0000000000946,00002.356013,00001.647769,00002.542630,00002.961073,00002.897636,00002.937286,00002.794154,00003.286974,00002.399666,00001.869808,-00000.472217,-00000.114228,-00000.598086,-00000.102238,00000.073959,-00000.201701
0000000000947,00002.357105,00001.647571,00002.542904,00002.960747,00002.897269,00002.937190,00002.793940,00003.286987,00002.399402,00001.869343,-00000.472289,-00000.114465,-00000.598224,-00000.102267,00000.073907,-00000.201936
0000000000948,00002.357946,00001.647631,00002.542934,00002.960830,00002.897393,00002.937314,00002.794061,00003.286883,00002.399824,00001.868941,-00000.472380,-00000.114656,-00000.598035,-00000.102272,00000.074208,-00000.202546
0000000000949,00002.358512,00001.647825,00002.542804,00002.960552,00002.897443,00002.936870,00002.794242,00003.286894,00002.399962,00001.868545,-00000.472441,-00000.114495,-00000.597789,-00000.102297,00000.074527,-00000.203108
0000000000950,00002.359229,00001.647513,00002.543193,00002.960622,00002.897549,00002.937338,00002.793982,00003.287531,00002.399959,00001.868203,-00000.472519,-00000.114658,-00000.597991,-00000.102302,00000.074057,-00000.203264
0000000000951,00002.359711,00001.648042,00002.543082,00002.961112,00002.897592,00002.937323,00002.794136,00003.287178,00002.400438,00001.867866,-00000.472571,-00000.114884,-00000.598145,-00000.102323,00000.073603,-00000.203381
0000000000952,00002.360321,00001.648139,00002.543413,00002.960808,00002.898044,00002.937359,00002.794278,00003.287720,00002.401162,00001.868664,-00000.472637,-00000.114660,-00000.597954,-00000.102327,00000.073566,-00000.203514
0000000000953,00002.360368,00001.648226,00002.543319,00002.960862,00002.898081,00002.937345,00002.794409,00003.287782,00002.402295,00001.869103,-00000.472319,-00000.114489,-00000.597722,-00000.102345,00000.073905,-00000.203612
0000000000954,00002.361250,00001.648309,00002.543601,00002.960967,00002.898466,00002.937739,00002.794167,00003.288244,00002.402911,00001.869781,-00000.472012,-00000.114298,-00000.597560,-00000.102348,00000.074599,-00000.203726
0000000000955,00002.362016,00001.648746,00002.543883,00002.961013,00002.898860,00002.937728,00002.794641,00003.288297,00002.403876,00001.870518,-00000.471741,-00000.114153,-00000.597363,-00000.102364,00000.075613,-00000.204173
0000000000956,00002.362404,00001.649179,00002.544123,00002.960739,00002.899188,00002.937700,00002.794798,00003.288327,00002.404400,00001.871095,-00000.471480,-00000.113991,-00000.597224,-00000.102366,00000.076567,-00000.204632
0000000000957,00002.363056,00001.649913,00002.544364,00002.961141,00002.899160,00002.938053,00002.794839,00003.288372,00002.405222,00001.871359,-00000.471250,-00000.113867,-00000.597056,-00000.102379,00000.077067,-00000.205012
0000000000958,00002.363387,00001.650282,00002.544568,00002.961633,00002.899076,00002.938392,00002.794609,00003.288398,00002.405306,00001.871851,-00000.471390,-00000.113729,-00000.596939,-00000.102382,00000.077516,-00000.205403
0000000000959,00002.362491,00001.649819,00002.544047,00002.961613,00002.898690,00002.938330,00002.794281,00003.288436,00002.404917,00001.872076,-00000.471194,-00000.113624,-00000.596795,-00000.102393,00000.077579,-00000.205364
0000000000960,00002.362409,00001.649408,00002.543858,00002.961669,00002.898256,00002.938256,00002.794086,00003.288458,00002.404625,00001.872495,-00000.470951,-00000.113506,-00000.596695,-00000.102395,00000.077599,-00000.205335
0000000000961,00002.362009,00001.649014,00002.543778,00002.961651,00002.898290,00002.937840,00002.794170,00003.288128,00002.403931,00001.872686,-00000.471146,-00000.113416,-00000.596936,-00000.102404,00000.077653,-00000.205301
0000000000962,00002.361214,00001.648663,00002.543617,00002.961337,00002.898284,00002.937415,00002.794366,00003.287783,00002.403320,00001.872680,-00000.471302,-00000.113679,-00000.597214,-00000.102406,00000.077669,-00000.205276
0000000000963,00002.360148,00001.647965,00002.543185,00002.961322,00002.897950,00002.937423,00002.794075,00003.287502,00002.402729,00001.872843,-00000.471469,-00000.113965,-00000.597419,-00000.102414,00000.077715,-00000.205248
0000000000964,00002.359108,00001.647304,00002.543411,00002.960691,00002.897944,00002.937061,00002.793879,00003.287572,00002.401846,00001.872837,-00000.471601,-00000.114189,-00000.597655,-00000.102416,00000.077729,-00000.205226
0000000000965,00002.358564,00001.646710,00002.543770,00002.960678,00002.898023,00002.937069,00002.793631,00003.288059,00002.401343,00001.873339,-00000.471743,-00000.114433,-00000.597830,-00000.102422,00000.078131,-00000.205202
0000000000966,00002.357679,00001.646510,00002.543962,00002.960504,00002.898381,00002.936760,00002.793827,00003.288118,00002.400954,00001.873334,-00000.471856,-00000.114623,-00000.598031,-00000.102424,00000.078506,-00000.205183
0000000000967,00002.356852,00001.646003,00002.543904,00002.960130,00002.898448,00002.936404,00002.793616,00003.287806,00002.400526,00001.873398,-00000.471977,-00000.114468,-00000.598180,-00000.102430,00000.078485,-00000.205163
0000000000968,00002.356099,00001.645833,00002.543705,00002.959982,00002.898389,00002.936141,00002.793783,00003.287494,00002.400195,00001.873394,-00000.472436,-00000.114267,-00000.598351,-00000.102431,00000.078079,-00000.205147
0000000000969,00002.355758,00001.645402,00002.544019,00002.960390,00002.898446,00002.936563,00002.793966,00003.287592,00002.399831,00001.873449,-00000.472901,-00000.114135,-00000.598477,-00000.102436,00000.077335,-00000.205130
0000000000970,00002.355479,00001.644895,00002.543849,00002.959901,00002.898397,00002.936339,00002.793745,00003.287326,00002.399186,00001.873083,-00000.473655,-00000.113964,-00000.598260,-00000.102436,00000.076989,-00000.205479
0000000000971,00002.354826,00001.644891,00002.543391,00002.959885,00002.898445,00002.935973,00002.793901,00003.287046,00002.398876,00001.873129,-00000.475139,-00000.113852,-00000.597642,-00000.102441,00000.076357,-00000.205827
0000000000972,00002.353863,00001.645184,00002.543246,00002.959469,00002.898403,00002.935783,00002.794076,00003.286820,00002.399052,00001.873180,-00000.477958,-00000.113706,-00000.596369,-00000.102441,00000.074611,-00000.206488
0000000000973,00002.352945,00001.645906,00002.543581,00002.958367,00002.898807,00002.935834,00002.794209,00003.286945,00002.399151,00001.873583,-00000.481761,-00000.113248,-00000.594755,-00000.102445,00000.072258,-00000.207147
0000000000974,00002.351762,00001.646519,00002.543459,00002.957287,00002.898772,00002.936035,00002.794358,00003.286752,00002.399664,00001.873626,-00000.485611,-00000.112761,-00000.593308,-00000.102446,00000.069684,-00000.207346
0000000000975,00002.350618,00001.647134,00002.543381,00002.955260,00002.898753,00002.936078,00002.794108,00003.287221,00002.399386,00001.873606,-00000.489575,-00000.112370,-00000.591934,-00000.102449,00000.067318,-00000.207544
0000000000976,00002.349611,00001.647655,00002.543277,00002.952164,00002.898722,00002.936249,00002.793509,00003.287420,00002.399097,00001.872555,-00000.495392,-00000.111593,-00000.589977,-00000.102449,00000.064401,-00000.208076
0000000000977,00002.348274,00001.648179,00002.543573,00002.948625,00002.898706,00002.936286,00002.793296,00003.287456,00002.398860,00001.871812,-00000.502394,-00000.110898,-00000.587719,-00000.102089,00000.060573,-00000.207882
0000000000978,00002.346328,00001.648985,00002.545661,00002.945627,00002.898680,00002.936069,00002.793512,00003.286900,00002.398614,00001.870554,-00000.510974,-00000.110600,-00000.585327,-00000.101001,00000.055550,-00000.206522
0000000000979,00002.343376,00001.649794,00002.548091,00002.942251,00002.898667,00002.935738,00002.793694,00003.286568,00002.398412,00001.870284,-00000.520563,-00000.110733,-00000.583042,-00000.099969,00000.049389,-00000.203454
0000000000980,00002.339906,00001.650118,00002.548417,00002.939336,00002.898282,00002.935553,00002.793515,00003.286457,00002.398203,00001.870302,-00000.530044,-00000.110842,-00000.581006,-00000.099043,00000.044025,-00000.200119
0000000000981,00002.335578,00001.650443,00002.547945,00002.935736,00002.897907,00002.934545,00002.793307,00003.285812,00002.397668,00001.869710,-00000.540384,-00000.111681,-00000.579060,-00000.097801,00000.039143,-00000.196782
0000000000982,00002.332262,00001.651082,00002.547497,00002.932529,00002.897580,00002.933299,00002.793154,00003.286080,00002.396764,00001.868274,-00000.550632,-00000.112137,-00000.577327,-00000.096650,00000.034939,-00000.194306
0000000000983,00002.327489,00001.651721,00002.547822,00002.928739,00002.897624,00002.931716,00002.792977,00003.286256,00002.395946,00001.866318,-00000.561974,-00000.112488,-00000.575308,-00000.095593,00000.030420,-00000.192553
0000000000984,00002.320675,00001.652265,00002.548892,00002.924920,00002.897708,00002.929567,00002.792848,00003.286122,00002.395177,00001.863644,-00000.575051,-00000.112876,-00000.573107,-00000.094976,00000.026478,-00000.189720
0000000000985,00002.310808,00001.652447,00002.550619,00002.919517,00002.897745,00002.927130,00002.792697,00003.285909,00002.394481,00001.860166,-00000.591962,-00000.113901,-00000.571388,-00000.094802,00000.022631,-00000.185325
0000000000986,00002.299202,00001.652547,00002.550078,00002.911550,00002.897817,00002.924575,00002.792223,00003.285432,00002.393100,00001.855713,-00000.612891,-00000.115319,-00000.570240,-00000.094639,00000.018550,-00000.180011
0000000000987,00002.288625,00001.652702,00002.549372,00002.902597,00002.897486,00002.922501,00002.791732,00003.284888,00002.392145,00001.848035,-00000.638534,-00000.116918,-00000.569865,-00000.094854,00000.014550,-00000.174456
0000000000988,00002.278745,00001.652787,00002.548549,00002.889284,00002.897547,00002.919963,00002.789878,00003.284120,00002.391332,00001.836989,-00000.670499,-00000.118488,-00000.569613,-00000.095078,00000.011801,-00000.168118
0000000000989,00002.271192,00001.652918,00002.548311,00002.872956,00002.897265,00002.917835,00002.786558,00003.283657,00002.390156,00001.824648,-00000.711557,-00000.120937,-00000.569657,-00000.095624,00000.009847,-00000.162301
0000000000990,00002.263507,00001.653717,00002.547610,00002.855818,00002.896591,00002.915675,00002.783165,00003.283365,00002.389101,00001.811979,-00000.758360,-00000.124087,-00000.571256,-00000.096903,00000.006418,-00000.157267
0000000000991,00002.254901,00001.655280,00002.546682,00002.836838,00002.896714,00002.913137,00002.780339,00003.282608,00002.388100,00001.798208,-00000.811452,-00000.127623,-00000.573108,-00000.099544,00000.001489,-00000.152315
0000000000992,00002.245819,00001.655959,00002.546085,00002.816444,00002.896140,00002.910572,00002.777451,00003.281634,00002.386477,00001.781618,-00000.871249,-00000.131757,-00000.575558,-00000.102810,-00000.004332,-00000.146217
0000000000993,00002.236315,00001.655839,00002.545295,00002.794844,00002.895520,00002.906598,00002.775044,00003.280627,00002.378731,00001.762639,-00000.937851,-00000.136581,-00000.578585,-00000.105784,-00000.009253,-00000.137285
0000000000994,00002.227133,00001.655692,00002.543699,00002.773855,00002.895031,00002.901150,00002.772949,00003.280160,00002.371182,00001.739446,-00001.010161,-00000.141913,-00000.581396,-00000.108564,-00000.012032,-00000.127014
0000000000995,00002.217591,00001.655227,00002.541575,00002.752565,00002.893777,00002.894864,00002.770537,00003.279303,00002.364225,00001.714583,-00001.087176,-00000.147834,-00000.584699,-00000.111821,-00000.013682,-00000.118684
0000000000996,00002.208323,00001.654738,00002.539490,00002.731431,00002.892999,00002.889137,00002.769842,00003.278543,00002.357073,00001.691211,-00001.168687,-00000.155276,-00000.588906,-00000.116728,-00000.016410,-00000.114294
0000000000997,00002.199837,00001.654342,00002.536956,00002.709679,00002.891931,00002.881247,00002.768877,00003.277813,00002.349700,00001.668593,-00001.255292,-00000.164307,-00000.593894,-00000.122403,-00000.020354,-00000.112645
0000000000998,00002.191221,00001.654290,00002.534456,00002.688061,00002.891268,00002.870567,00002.768285,00003.276803,00002.342523,00001.647245,-00001.341733,-00000.173545,-00000.597838,-00000.127305,-00000.025579,-00000.111811
0000000000999,00002.182909,00001.655404,00002.530848,00002.667003,00002.890359,00002.859134,00002.767827,00003.275456,00002.336608,00001.625451,-00001.425255,-00000.182322,-00000.600271,-00000.131048,-00000.030025,-00000.109681
0000000001000,00002.175575,00001.656084,00002.527994,00002.647148,00002.889432,00002.848591,00002.767323,00003.274597,00002.330498,00001.605101,-00001.506462,-00000.190186,-00000.600727,-00000.133771,-00000.031208,-00000.104617
0000000001001,00002.167048,00001.657396,00002.526011,00002.624143,00002.888296,00002.838132,00002.766933,00003.273087,00002.325101,00001.586185,-00001.588448,-00000.197294,-00000.600258,-00000.135869,-00000.031003,-00000.098814
0000000001002,00002.158990,00001.658338,00002.523944,00002.601798,00002.887144,00002.828794,00002.766504,00003.271267,00002.319174,00001.568135,-00001.670276,-00000.204352,-00000.599557,-00000.138549,-00000.030558,-00000.095228
0000000001003,00002.151005,00001.658728,00002.521530,00002.579675,00002.886176,00002.819527,00002.765809,00003.267806,00002.313128,00001.550581,-00001.748778,-00000.211855,-00000.598795,-00000.141060,-00000.029658,-00000.093190
0000000001004,00002.143420,00001.658805,00002.519771,00002.557388,00002.884833,00002.810852,00002.764718,00003.264805,00002.307357,00001.533401,-00001.824244,-00000.218951,-00000.597836,-00000.143342,-00000.027828,-00000.089775
0000000001005,00002.136259,00001.659138,00002.518079,00002.534926,00002.882558,00002.802601,00002.763763,00003.261495,00002.302210,00001.516281,-00001.896151,-00000.225701,-00000.596462,-00000.144755,-00000.024885,-00000.084774
0000000001006,00002.129439,00001.659566,00002.515130,00002.511962,00002.879600,00002.794853,00002.762472,00003.258215,00002.297297,00001.498753,-00001.965112,-00000.233193,-00000.595645,-00000.145971,-00000.021151,-00000.080053
0000000001007,00002.123344,00001.659849,00002.511875,00002.489938,00002.877301,00002.787466,00002.761659,00003.255398,00002.292552,00001.481276,-00002.030317,-00000.240391,-00000.595201,-00000.147174,-00000.017919,-00000.075071
0000000001008,00002.117538,00001.659850,00002.508639,00002.468575,00002.874420,00002.780145,00002.760560,00003.252243,00002.286193,00001.464904,-00002.092651,-00000.247857,-00000.595232,-00000.148935,-00000.014740,-00000.068875
0000000001009,00002.111623,00001.659728,00002.505869,00002.444747,00002.872100,00002.773131,00002.759143,00003.249481,00002.279977,00001.447849,-00002.151426,-00000.255073,-00000.594853,-00000.150685,-00000.010538,-00000.063545
0000000001010,00002.105592,00001.659730,00002.503477,00002.420756,00002.869648,00002.766535,00002.757481,00003.246070,00002.273838,00001.432097,-00002.205941,-00000.262155,-00000.593791,-00000.151821,-00000.006381,-00000.060447
0000000001011,00002.099831,00001.659989,00002.501481,00002.398294,00002.868036,00002.760201,00002.756638,00003.242993,00002.268184,00001.417578,-00002.255614,-00000.269748,-00000.592381,-00000.152948,-00000.002441,-00000.058449
0000000001012,00002.093971,00001.660715,00002.499445,00002.376419,00002.866311,00002.754224,00002.755949,00003.239363,00002.262958,00001.404169,-00002.302023,-00000.277954,-00000.591476,-00000.154278,00000.000373,-00000.055449
0000000001013,00002.088342,00001.661299,00002.497383,00002.355483,00002.864575,00002.748831,00002.755593,00003.236382,00002.258144,00001.391809,-00002.344672,-00000.286595,-00000.591001,-00000.155963,00000.002638,-00000.051572
0000000001014,00002.082628,00001.661917,00002.496012,00002.335048,00002.863107,00002.743380,00002.755007,00003.233292,00002.253332,00001.380393,-00002.384180,-00000.295758,-00000.590957,-00000.157458,00000.003945,-00000.047567
0000000001015,00002.077472,00001.662414,00002.494257,00002.316137,00002.861629,00002.738790,00002.754704,00003.230753,00002.249235,00001.369508,-00002.420850,-00000.304202,-00000.590552,-00000.158892,00000.005511,-00000.043540
0000000001016,00002.071882,00001.662578,00002.492727,00002.297288,00002.859291,00002.734512,00002.753842,00003.228123,00002.244776,00001.359065,-00002.457022,-00000.312728,-00000.589789,-00000.160165,00000.007712,-00000.039405
0000000001017,00002.059149,00001.662638,00002.491596,00002.279376,00002.857671,00002.730241,00002.753222,00003.225962,00002.239836,00001.349073,-00002.492230,-00000.321368,-00000.589082,-00000.161749,00000.010859,-00000.036703
0000000001018,00002.046409,00001.662415,00002.489931,00002.261879,00002.856043,00002.726236,00002.752488,00003.223723,00002.235314,00001.339819,-00002.525564,-00000.330077,-00000.589521,-00000.163558,00000.013458,-00000.036448
0000000001019,00002.035207,00001.662103,00002.488605,00002.245541,00002.854663,00002.722601,00002.751597,00003.221883,00002.230747,00001.329137,-00002.556261,-00000.338158,-00000.590370,-00000.165632,00000.014686,-00000.038138
0000000001020,00002.023635,00001.661913,00002.487550,00002.230284,00002.853277,00002.719192,00002.750609,00003.219977,00002.227260,00001.317268,-00002.585364,-00000.346660,-00000.589292,-00000.167172,00000.016173,-00000.039372
0000000001021,00002.011196,00001.661647,00002.486421,00002.215287,00002.852103,00002.716097,00002.749125,00003.218048,00002.223734,00001.304546,-00002.612585,-00000.356441,-00000.585661,-00000.167486,00000.018307,-00000.039360
0000000001022,00001.998081,00001.661486,00002.485161,00002.199033,00002.850923,00002.713195,00002.747559,00003.216062,00002.220403,00001.291541,-00002.639900,-00000.367670,-00000.581841,-00000.168072,00000.019936,-00000.040411
0000000001023,00001.985677,00001.661260,00002.483474,00002.182276,00002.849198,00002.710197,00002.745933,00003.213694,00002.217039,00001.279259,-00002.667064,-00000.380351,-00000.579114,-00000.169065,00000.021752,-00000.043303
0000000001024,00001.973061,00001.660759,00002.482401,00002.163722,00002.848194,00002.707001,00002.744237,00003.211641,00002.213115,00001.268913,-00002.692856,-00000.394989,-00000.576224,-00000.170289,00000.024227,-00000.048188
0000000001025,00001.961414,00001.660567,00002.481691,00002.145466,00002.846725,00002.703361,00002.742490,00003.209988,00002.209526,00001.258820,-00002.716344,-00000.409774,-00000.572451,-00000.171497,00000.026499,-00000.053189
0000000001026,00001.948133,00001.660503,00002.480414,00002.128220,00002.844419,00002.699189,00002.741046,00003.207878,00002.205822,00001.248924,-00002.737576,-00000.423687,-00000.568178,-00000.172539,00000.028969,-00000.056622
0000000001027,00001.936041,00001.659977,00002.479447,00002.111953,00002.842080,00002.695364,00002.739921,00003.205745,00002.202404,00001.239970,-00002.756845,-00000.437000,-00000.564240,-00000.173931,00000.031266,-00000.058703
0000000001028,00001.924736,00001.659197,00002.478723,00002.096909,00002.839754,00002.692175,00002.738329,00003.203948,00002.198888,00001.231545,-00002.774194,-00000.447392,-00000.560964,-00000.175181,00000.033368,-00000.060538
0000000001029,00001.914079,00001.658386,00002.477537,00002.083424,00002.837763,00002.688919,00002.737009,00003.201770,00002.195978,00001.224285,-00002.789147,-00000.455097,-00000.558701,-00000.176728,00000.034235,-00000.062309
0000000001030,00001.904092,00001.657723,00002.476921,00002.070617,00002.836146,00002.685842,00002.735654,00003.200241,00002.192623,00001.218201,-00002.801739,-00000.461042,-00000.557001,-00000.178517,00000.034574,-00000.064233
0000000001031,00001.895020,00001.657032,00002.476274,00002.059137,00002.834451,00002.683433,00002.734167,00003.198749,00002.189419,00001.213109,-00002.811566,-00000.465425,-00000.555436,-00000.179835,00000.034949,-00000.067193
0000000001032,00001.886155,00001.656467,00002.475749,00002.048597,00002.833074,00002.680813,00002.733376,00003.197447,00002.186563,00001.208656,-00002.819747,-00000.469035,-00000.553989,-00000.181358,00000.035237,-00000.070282
0000000001033,00001.877707,00001.655880,00002.474836,00002.038824,00002.830543,00002.678763,00002.732111,00003.195814,00002.183836,00001.204684,-00002.825936,-00000.474580,-00000.552295,-00000.182842,00000.035194,-00000.072076
0000000001034,00001.869435,00001.655036,00002.474026,00002.029126,00002.828645,00002.676532,00002.731437,00003.193980,00002.181404,00001.200893,-00002.830360,-00000.481280,-00000.551063,-00000.184502,00000.035440,-00000.073254
0000000001035,00001.861517,00001.654173,00002.473248,00002.020081,00002.826853,00002.674424,00002.730723,00003.191865,00002.178720,00001.197148,-00002.834178,-00000.488178,-00000.550346,-00000.186491,00000.035040,-00000.074781
0000000001036,00001.854112,00001.653092,00002.472559,00002.012187,00002.824875,00002.672888,00002.729787,00003.190303,00002.176287,00001.193921,-00002.836130,-00000.494245,-00000.550385,-00000.189355,00000.033435,-00000.076148
0000000001037,00001.847008,00001.652357,00002.472260,00002.005213,00002.823349,00002.671456,00002.729178,00003.188503,00002.174002,00001.191096,-00002.837566,-00000.497940,-00000.550500,-00000.192137,00000.031643,-00000.076722
0000000001038,00001.840342,00001.651437,00002.472036,00001.998493,00002.822390,00002.669785,00002.728744,00003.187173,00002.171931,00001.188349,-00002.839954,-00000.499477,-00000.550897,-00000.194575,00000.030640,-00000.076434
0000000001039,00001.833569,00001.650448,00002.471781,00001.991830,00002.821092,00002.667841,00002.728227,00003.186003,00002.169623,00001.185581,-00002.843353,-00000.501171,-00000.551358,-00000.196943,00000.029840,-00000.074746
0000000001040,00001.826806,00001.649665,00002.471591,00001.985747,00002.819913,00002.665693,00002.727857,00003.184509,00002.167497,00001.182880,-00002.847562,-00000.503568,-00000.551333,-00000.199381,00000.028986,-00000.073775
0000000001041,00001.821040,00001.648824,00002.471011,00001.980075,00002.818082,00002.664037,00002.727053,00003.182787,00002.165533,00001.180524,-00002.850456,-00000.506098,-00000.552088,-00000.201760,00000.028668,-00000.075241
0000000001042,00001.815282,00001.648519,00002.470849,00001.975259,00002.816715,00002.662209,00002.726376,00003.181152,00002.163723,00001.178587,-00002.852588,-00000.508139,-00000.553155,-00000.203836,00000.028304,-00000.077317
0000000001043,00001.810011,00001.647803,00002.470718,00001.970793,00002.815519,00002.660437,00002.725692,00003.179686,00002.161687,00001.176581,-00002.854689,-00000.509205,-00000.554160,-00000.205498,00000.028396,-00000.078927
0000000001044,00001.804747,00001.647181,00002.470218,00001.966330,00002.814356,00002.658881,00002.725115,00003.177932,00002.160147,00001.174569,-00002.856504,-00000.510216,-00000.554706,-00000.206903,00000.028448,-00000.079968
0000000001045,00001.799534,00001.646572,00002.470106,00001.962166,00002.812975,00002.657372,00002.724533,00003.176684,00002.158414,00001.172499,-00002.859018,-00000.510761,-00000.554473,-00000.208317,00000.028890,-00000.081339
0000000001046,00001.794327,00001.645680,00002.470043,00001.958004,00002.811985,00002.656047,00002.724042,00003.175190,00002.156739,00001.170060,-00002.863465,-00000.511622,-00000.554212,-00000.210239,00000.030386,-00000.081863
0000000001047,00001.789526,00001.644435,00002.469585,00001.953733,00002.810809,00002.655126,00002.723183,00003.174128,00002.154902,00001.167935,-00002.868871,-00000.511723,-00000.554014,-00000.212532,00000.032213,-00000.082305
0000000001048,00001.784730,00001.643313,00002.469168,00001.949464,00002.809603,00002.653998,00002.722766,00003.172856,00002.152751,00001.165497,-00002.874108,-00000.511368,-00000.554518,-00000.214530,00000.034574,-00000.083839
0000000001049,00001.780281,00001.641890,00002.468779,00001.944740,00002.808240,00002.652488,00002.721672,00003.171226,00002.150460,00001.162599,-00002.878710,-00000.510728,-00000.556526,-00000.216482,00000.037581,-00000.087843
0000000001050,00001.775110,00001.640572,00002.468787,00001.939655,00002.807213,00002.651165,00002.720591,00003.170144,00002.147904,00001.159798,-00002.883168,-00000.510063,-00000.558406,-00000.218183,00000.040317,-00000.092777
0000000001051,00001.769871,00001.638999,00002.468455,00001.934545,00002.806053,00002.649879,00002.720022,00003.168756,00002.145591,00001.156606,-00002.888537,-00000.509518,-00000.559390,-00000.219845,00000.042876,-00000.096911
0000000001052,00001.764381,00001.637151,00002.468099,00001.928765,00002.804816,00002.648027,00002.719465,00003.167109,00002.142689,00001.153132,-00002.895235,-00000.509677,-00000.560264,-00000.221293,00000.045568,-00000.101474
0000000001053,00001.759558,00001.635449,00002.467817,00001.923326,00002.803465,00002.646570,00002.718618,00003.165565,00002.139632,00001.150052,-00002.901981,-00000.510665,-00000.561102,-00000.222708,00000.048110,-00000.107170
0000000001054,00001.755247,00001.633876,00002.467514,00001.918043,00002.802049,00002.645356,00002.717418,00003.164163,00002.136799,00001.146369,-00002.907683,-00000.511526,-00000.561121,-00000.224303,00000.050039,-00000.112506
0000000001055,00001.750778,00001.632063,00002.467636,00001.911962,00002.801262,00002.643753,00002.716697,00003.162486,00002.133834,00001.140482,-00002.913427,-00000.513092,-00000.561109,-00000.225870,00000.052203,-00000.116630
0000000001056,00001.746383,00001.630362,00002.467378,00001.906013,00002.800057,00002.642357,00002.715675,00003.160929,00002.131059,00001.134808,-00002.919732,-00000.515276,-00000.561850,-00000.227591,00000.054570,-00000.118995
0000000001057,00001.742216,00001.628819,00002.467482,00001.896846,00002.799387,00002.640630,00002.714699,00003.159139,00002.128172,00001.129070,-00002.928975,-00000.520238,-00000.563291,-00000.229288,00000.056412,-00000.118152
0000000001058,00001.738474,00001.627370,00002.467263,00001.887791,00002.798361,00002.639078,00002.713829,00003.157451,00002.125447,00001.123514,-00002.939422,-00000.526088,-00000.564648,-00000.230753,00000.058428,-00000.119077
0000000001059,00001.734564,00001.626420,00002.466989,00001.878898,00002.797790,00002.637245,00002.713360,00003.155564,00002.122989,00001.118267,-00002.949830,-00000.532125,-00000.566963,-00000.232924,00000.060721,-00000.123076
0000000001060,00001.731378,00001.625186,00002.466801,00001.869738,00002.796917,00002.635924,00002.712620,00003.153764,00002.120669,00001.113174,-00002.959449,-00000.538920,-00000.570657,-00000.235985,00000.062075,-00000.128217
0000000001061,00001.728413,00001.624014,00002.466568,00001.861080,00002.796068,00002.634363,00002.711858,00003.152158,00002.118214,00001.107981,-00002.969398,-00000.546236,-00000.574442,-00000.239283,00000.062576,-00000.132347
0000000001062,00001.725338,00001.622965,00002.466409,00001.852556,00002.795688,00002.632876,00002.711591,00003.150626,00002.116602,00001.102558,-00002.980489,-00000.554922,-00000.576499,-00000.241889,00000.063365,-00000.134910
0000000001063,00001.722450,00001.621604,00002.466210,00001.844460,00002.795328,00002.631185,00002.710942,00003.149258,00002.114875,00001.097049,-00002.993675,-00000.564053,-00000.576455,-00000.243972,00000.064880,-00000.136248
0000000001064,00001.719833,00001.620347,00002.466075,00001.835753,00002.794641,00002.629193,00002.709989,00003.147954,00002.113140,00001.091343,-00003.008921,-00000.573988,-00000.575304,-00000.246191,00000.065189,-00000.137705
0000000001065,00001.717012,00001.619189,00002.466269,00001.826683,00002.794335,00002.627390,00002.709437,00003.147152,00002.111669,00001.086291,-00003.025225,-00000.585389,-00000.574905,-00000.249052,00000.064302,-00000.139570
0000000001066,00001.713333,00001.617757,00002.466153,00001.812378,00002.794476,00002.624970,00002.708625,00003.145679,00002.110192,00001.079257,-00003.043284,-00000.598562,-00000.576101,-00000.252029,00000.061663,-00000.137907
0000000001067,00001.709117,00001.616045,00002.465955,00001.794862,00002.794216,00002.621621,00002.707793,00003.143908,00002.108578,00001.071690,-00003.064419,-00000.615523,-00000.577575,-00000.255190,00000.058731,-00000.133327
0000000001068,00001.704896,00001.614463,00002.465857,00001.775790,00002.793973,00002.618109,00002.707102,00003.141929,00002.106957,00001.064251,-00003.088862,-00000.635082,-00000.578231,-00000.257724,00000.056122,-00000.127559
0000000001069,00001.700945,00001.612643,00002.465689,00001.751446,00002.794114,00002.614895,00002.706393,00003.140421,00002.105583,00001.057084,-00003.115199,-00000.655689,-00000.579123,-00000.260416,00000.053989,-00000.121483
0000000001070,00001.697352,00001.610933,00002.465605,00001.726867,00002.793907,00002.611905,00002.705079,00003.138736,00002.103478,00001.050389,-00003.140361,-00000.676693,-00000.581495,-00000.263662,00000.051404,-00000.115846
0000000001071,00001.693988,00001.609021,00002.465462,00001.703240,00002.794027,00002.609170,00002.703750,00003.137090,00002.101582,00001.043925,-00003.161693,-00000.696049,-00000.584794,-00000.267404,00000.048500,-00000.111037
0000000001072,00001.690567,00001.607566,00002.465028,00001.680864,00002.793851,00002.606262,00002.702995,00003.134930,00002.099790,00001.037862,-00003.180211,-00000.714293,-00000.587539,-00000.270530,00000.045937,-00000.108053
0000000001073,00001.686977,00001.605938,00002.464543,00001.659300,00002.793590,00002.603933,00002.701863,00003.132803,00002.098177,00001.031996,-00003.199097,-00000.731859,-00000.589984,-00000.273353,00000.043828,-00000.104684
0000000001074,00001.683339,00001.604336,00002.464173,00001.635898,00002.793440,00002.601457,00002.700857,00003.130964,00002.096288,00001.025747,-00003.218852,-00000.749204,-00000.591233,-00000.274926,00000.043823,-00000.102506
0000000001075,00001.679921,00001.602951,00002.463398,00001.612461,00002.792856,00002.599112,00002.699168,00003.128791,00002.093826,00001.019665,-00003.237469,-00000.765972,-00000.592952,-00000.276240,00000.043478,-00000.100727
0000000001076,00001.676823,00001.601587,00002.463083,00001.589636,00002.792728,00002.597367,00002.697949,00003.127225,00002.091130,00001.014345,-00003.253198,-00000.782189,-00000.596192,-00000.278668,00000.041660,-00000.097059
0000000001077,00001.673913,00001.600044,00002.462423,00001.568596,00002.792230,00002.596459,00002.696149,00003.125738,00002.088309,00001.009530,-00003.266507,-00000.797552,-00000.600920,-00000.281238,00000.038464,-00000.092279
0000000001078,00001.671639,00001.598521,00002.462518,00001.548803,00002.792122,00002.595699,00002.694748,00003.124405,00002.085651,00001.005364,-00003.278446,-00000.812083,-00000.605492,-00000.283667,00000.035465,-00000.086617
0000000001079,00001.669162,00001.596845,00002.462319,00001.529803,00002.791698,00002.594926,00002.693215,00003.123139,00002.083249,00001.001265,-00003.289776,-00000.825162,-00000.608066,-00000.285130,00000.033107,-00000.080734
0000000001080,00001.666863,00001.595548,00002.461674,00001.511864,00002.792331,00002.594642,00002.692386,00003.122367,00002.081349,00000.997355,-00003.299939,-00000.837532,-00000.611595,-00000.286835,00000.031643,-00000.076277
0000000001081,00001.664755,00001.594121,00002.460779,00001.494601,00002.792333,00002.593984,00002.691444,00003.120926,00002.079304,00000.993503,-00003.307408,-00000.849029,-00000.616326,-00000.288806,00000.030724,-00000.073082
0000000001082,00001.663161,00001.592654,00002.459867,00001.478605,00002.791784,00002.593379,00002.690012,00003.119544,00002.076961,00000.990175,-00003.312069,-00000.859196,-00000.623322,-00000.291709,00000.029840,-00000.070739
0000000001083,00001.662091,00001.591440,00002.459468,00001.463909,00002.792149,00002.593907,00002.689573,00003.118680,00002.075221,00000.987984,-00003.312623,-00000.867895,-00000.631703,-00000.294837,00000.028332,-00000.069471
0000000001084,00001.661459,00001.590191,00002.459055,00001.450291,00002.792406,00002.594481,00002.688717,00003.117866,00002.073589,00000.985876,-00003.311512,-00000.875100,-00000.639472,-00000.297309,00000.026491,-00000.067476
0000000001085,00001.660912,00001.589157,00002.458352,00001.438143,00002.792717,00002.595293,00002.687980,00003.117131,00002.072833,00000.984011,-00003.309443,-00000.882142,-00000.646969,-00000.299247,00000.025207,-00000.064945
0000000001086,00001.660737,00001.588094,00002.457638,00001.426550,00002.792936,00002.596870,00002.687251,00003.116437,00002.072169,00000.982217,-00003.306321,-00000.888639,-00000.654671,-00000.301713,00000.024003,-00000.062521
0000000001087,00001.660633,00001.587213,00002.458490,00001.415846,00002.793563,00002.598287,00002.686624,00003.115811,00002.071162,00000.980992,-00003.301295,-00000.894271,-00000.663231,-00000.305177,00000.022185,-00000.059641
0000000001088,00001.660033,00001.585196,00002.459334,00001.396139,00002.794284,00002.601199,00002.685107,00003.114326,00002.070103,00000.978785,-00003.290005,-00000.902419,-00000.680702,-00000.313853,00000.017435,-00000.053675
0000000001089,00001.659961,00001.584063,00002.459743,00001.387066,00002.794389,00002.603067,00002.684216,00003.113877,00002.069260,00000.977430,-00003.284962,-00000.905838,-00000.687357,-00000.317131,00000.016052,-00000.050212
0000000001090,00001.657284,00001.582151,00002.460762,00001.369824,00002.794624,00002.605994,00002.682694,00003.113405,00002.067033,00000.975027,-00003.274650,-00000.909364,-00000.696162,-00000.322579,00000.014391,-00000.047462
0000000001091,00001.656294,00001.580620,00002.461335,00001.361977,00002.794385,00002.607077,00002.681681,00003.112965,00002.065640,00000.973962,-00003.267495,-00000.909981,-00000.701575,-00000.325203,00000.012890,-00000.046812
0000000001092,00001.653800,00001.578495,00002.462118,00001.348829,00002.794621,00002.608319,00002.680899,00003.112265,00002.063588,00000.972075,-00003.249621,-00000.910714,-00000.708628,-00000.329088,00000.010973,-00000.043116
0000000001093,00001.652703,00001.577124,00002.462316,00001.343377,00002.794323,00002.608899,00002.680296,00003.111989,00002.062125,00000.971239,-00003.239831,-00000.910112,-00000.709714,-00000.330022,00000.010174,-00000.040897
0000000001094,00001.650018,00001.574793,00002.462953,00001.334446,00002.793842,00002.609507,00002.679357,00003.110708,00002.060233,00000.969756,-00003.217364,-00000.905746,-00000.710478,-00000.332101,00000.007210,-00000.038806
0000000001095,00001.648472,00001.573440,00002.463769,00001.330485,00002.793649,00002.609913,00002.678995,00003.110491,00002.059374,00000.969099,-00003.205573,-00000.902506,-00000.712881,-00000.334754,00000.004741,-00000.037708
0000000001096,00001.643239,00001.568175,00002.467000,00001.320812,00002.792125,00002.610787,00002.678649,00003.110133,00002.056810,00000.966867,-00003.146907,-00000.858898,-00000.703610,-00000.334936,00000.000322,-00000.031009
0000000001097,00001.641961,00001.566812,00002.469843,00001.324669,00002.791608,00002.610388,00002.679769,00003.110580,00002.059336,00000.966034,-00003.126648,-00000.832762,-00000.697663,-00000.330480,00000.000637,-00000.028575
0000000001098,00001.641373,00001.566464,00002.471654,00001.325918,00002.791600,00002.610346,00002.680876,00003.110729,00002.060483,00000.965644,-00003.117279,-00000.819595,-00000.696445,-00000.329425,-00000.000197,-00000.028207
0000000001099,00001.640372,00001.565356,00002.474530,00001.327928,00002.791524,00002.611102,00002.682391,00003.110725,00002.062826,00000.966081,-00003.097798,-00000.791685,-00000.692652,-00000.327240,00000.000195,-00000.026189
0000000001100,00001.640246,00001.564049,00002.477342,00001.333629,00002.791459,00002.612471,00002.683680,00003.111809,00002.065184,00000.968268,-00003.075772,-00000.766836,-00000.685432,-00000.323203,00000.001254,-00000.025560
0000000001101,00001.640192,00001.563461,00002.478573,00001.338143,00002.791410,00002.612727,00002.684040,00003.111923,00002.066220,00000.969227,-00003.065507,-00000.755230,-00000.682733,-00000.321607,00000.001573,-00000.025160
0000000001102,00001.639729,00001.562799,00002.478969,00001.346316,00002.790274,00002.613492,00002.685084,00003.111741,00002.068073,00000.970583,-00003.047194,-00000.729272,-00000.681704,-00000.319496,00000.001702,-00000.023232
0000000001103,00001.639336,00001.562235,00002.479670,00001.353274,00002.789670,00002.614505,00002.685973,00003.111949,00002.070013,00000.972463,-00003.031242,-00000.697015,-00000.677926,-00000.316247,00000.001812,-00000.020866
0000000001104,00001.639351,00001.562119,00002.480712,00001.356774,00002.789403,00002.615263,00002.686507,00003.112373,00002.071025,00000.973479,-00003.022127,-00000.681138,-00000.675562,-00000.314405,00000.001662,-00000.019933
0000000001105,00001.638651,00001.562019,00002.481154,00001.370521,00002.788928,00002.616013,00002.687547,00003.112124,00002.072163,00000.974929,-00003.003009,-00000.652774,-00000.670158,-00000.311188,00000.000327,-00000.018058
0000000001106,00001.637329,00001.561572,00002.482618,00001.394559,00002.787799,00002.616652,00002.688795,00003.112275,00002.073495,00000.975799,-00002.984195,-00000.624637,-00000.658664,-00000.305547,00000.001367,-00000.016098
0000000001107,00001.636766,00001.561209,00002.483492,00001.409094,00002.786948,00002.617353,00002.689165,00003.112776,00002.073541,00000.976176,-00002.974954,-00000.610357,-00000.652347,-00000.302338,00000.002414,-00000.015994
0000000001108,00001.635725,00001.561244,00002.484245,00001.442633,00002.785387,00002.617792,00002.689810,00003.112830,00002.074305,00000.976862,-00002.953781,-00000.582723,-00000.642051,-00000.297650,00000.002055,-00000.017243
0000000001109,00001.635246,00001.560866,00002.484562,00001.458141,00002.784312,00002.617967,00002.689727,00003.112822,00002.074613,00000.977535,-00002.943836,-00000.568189,-00000.635324,-00000.295314,00000.002226,-00000.017040
0000000001110,00001.633705,00001.560590,00002.485520,00001.486926,00002.783143,00002.617589,00002.690288,00003.113232,00002.074855,00000.978018,-00002.923299,-00000.543560,-00000.624656,-00000.289857,00000.003346,-00000.016320
0000000001111,00001.632756,00001.559992,00002.486334,00001.515785,00002.781786,00002.618356,00002.690766,00003.114306,00002.075061,00000.979155,-00002.898561,-00000.524045,-00000.620654,-00000.286299,00000.003574,-00000.016795
0000000001112,00001.632144,00001.559763,00002.486833,00001.528451,00002.778073,00002.618493,00002.690960,00003.114555,00002.074992,00000.979662,-00002.887268,-00000.513795,-00000.618492,-00000.284258,00000.003709,-00000.016292
0000000001113,00001.630701,00001.559288,00002.487452,00001.551135,00002.767674,00002.618037,00002.691338,00003.114707,00002.074452,00000.979466,-00002.866799,-00000.490362,-00000.614319,-00000.280445,00000.003157,-00000.014232
0000000001114,00001.630280,00001.559050,00002.487981,00001.560540,00002.764090,00002.617859,00002.691519,00003.115020,00002.074351,00000.979967,-00002.856778,-00000.480365,-00000.614563,-00000.279404,00000.002482,-00000.013878
0000000001115,00001.629477,00001.559044,00002.489156,00001.576276,00002.758672,00002.617497,00002.692539,00003.115103,00002.074632,00000.980451,-00002.837578,-00000.463354,-00000.617140,-00000.278852,-00000.000064,-00000.014354
0000000001116,00001.628794,00001.558676,00002.490518,00001.587494,00002.754060,00002.617552,00002.693770,00003.115174,00002.074871,00000.981227,-00002.821958,-00000.449961,-00000.614619,-00000.277657,-00000.000780,-00000.013671
0000000001117,00001.628835,00001.558510,00002.491089,00001.589020,00002.751720,00002.618126,00002.693718,00003.115713,00002.074774,00000.981169,-00002.815060,-00000.445713,-00000.613912,-00000.277327,-00000.001065,-00000.013353
0000000001118,00001.628610,00001.558221,00002.492164,00001.587097,00002.749230,00002.618450,00002.694411,00003.116056,00002.074992,00000.981838,-00002.803515,-00000.439297,-00000.614410,-00000.278173,-00000.002720,-00000.014270
0000000001119,00001.628056,00001.557976,00002.492354,00001.584009,00002.748561,00002.618726,00002.695364,00003.116348,00002.075540,00000.982044,-00002.798765,-00000.430569,-00000.610843,-00000.277804,-00000.003404,-00000.016139
0000000001120,00001.628231,00001.557869,00002.492472,00001.582542,00002.749481,00002.618508,00002.695536,00003.116526,00002.075758,00000.981938,-00002.797740,-00000.425952,-00000.608111,-00000.277468,-00000.003540,-00000.017499
0000000001121,00001.628458,00001.557676,00002.492253,00001.579405,00002.750589,00002.618775,00002.695959,00003.116748,00002.076192,00000.981767,-00002.800016,-00000.413404,-00000.604392,-00000.278293,-00000.004102,-00000.021428
0000000001122,00001.627927,00001.557512,00002.492067,00001.574558,00002.749719,00002.618277,00002.696681,00003.116937,00002.075837,00000.980895,-00002.805582,-00000.399457,-00000.604854,-00000.280083,-00000.004217,-00000.022232
0000000001123,00001.628038,00001.557800,00002.491789,00001.572427,00002.748465,00002.618397,00002.696928,00003.116579,00002.076071,00000.980165,-00002.806834,-00000.392736,-00000.604901,-00000.280300,-00000.003190,-00000.022787
0000000001124,00001.627837,00001.557734,00002.491908,00001.570795,00002.747527,00002.618216,00002.696934,00003.116735,00002.076259,00000.979790,-00002.807055,-00000.386858,-00000.605248,-00000.280519,-00000.002502,-00000.023642
0000000001125,00001.627398,00001.557561,00002.491410,00001.568317,00002.744935,00002.618164,00002.697512,00003.116926,00002.076619,00000.979213,-00002.806132,-00000.376858,-00000.606309,-00000.281615,-00000.001767,-00000.024117
0000000001126,00001.627387,00001.557414,00002.491349,00001.566570,00002.741640,00002.618120,00002.697278,00003.116726,00002.076563,00000.978721,-00002.806435,-00000.365080,-00000.603584,-00000.281460,00000.000310,-00000.023796
0000000001127,00001.627014,00001.556563,00002.491297,00001.566172,00002.737384,00002.618808,00002.697079,00003.116918,00002.076152,00000.977940,-00002.804879,-00000.351063,-00000.599813,-00000.280240,00000.003166,-00000.025337
0000000001128,00001.626486,00001.556181,00002.491514,00001.567662,00002.734131,00002.618902,00002.697223,00003.116637,00002.075966,00000.977054,-00002.802365,-00000.342497,-00000.598361,-00000.279334,00000.004362,-00000.025666
0000000001129,00001.625159,00001.555513,00002.491800,00001.572905,00002.727726,00002.618748,00002.697395,00003.116842,00002.074918,00000.975432,-00002.797060,-00000.326759,-00000.597180,-00000.277704,00000.006253,-00000.024026
0000000001130,00001.624722,00001.555221,00002.491887,00001.577231,00002.724631,00002.618858,00002.697074,00003.116912,00002.074470,00000.974693,-00002.793950,-00000.321019,-00000.598115,-00000.277753,00000.006579,-00000.023681
0000000001131,00001.624746,00001.555422,00002.492118,00001.585405,00002.720002,00002.618711,00002.697268,00003.117077,00002.074370,00000.974148,-00002.783004,-00000.312465,-00000.606767,-00000.279623,00000.005238,-00000.025239
0000000001132,00001.625129,00001.555230,00002.493402,00001.592727,00002.716424,00002.618585,00002.697796,00003.117943,00002.074285,00000.974046,-00002.770057,-00000.303732,-00000.613769,-00000.280490,00000.005185,-00000.026928
0000000001133,00001.625145,00001.555346,00002.493825,00001.596391,00002.715024,00002.618774,00002.698598,00003.118328,00002.074590,00000.974253,-00002.763422,-00000.299514,-00000.616091,-00000.280664,00000.005163,-00000.027110
0000000001134,00001.625469,00001.555891,00002.494493,00001.603167,00002.712187,00002.619364,00002.699654,00003.119007,00002.075198,00000.974862,-00002.748309,-00000.293069,-00000.623884,-00000.282827,00000.002582,-00000.028158
0000000001135,00001.625733,00001.556324,00002.495119,00001.606697,00002.711873,00002.619731,00002.699972,00003.119307,00002.075495,00000.975230,-00002.739564,-00000.290385,-00000.626256,-00000.283616,00000.002360,-00000.027883
0000000001136,00001.626332,00001.556723,00002.495957,00001.613755,00002.711318,00002.619817,00002.700823,00003.119841,00002.075606,00000.976419,-00002.723282,-00000.286750,-00000.630360,-00000.285340,00000.002735,-00000.027728
0000000001137,00001.626842,00001.556701,00002.497034,00001.620126,00002.710482,00002.620252,00002.701185,00003.120658,00002.075700,00000.977068,-00002.704704,-00000.284743,-00000.637482,-00000.288622,00000.001240,-00000.027958
0000000001138,00001.627114,00001.556677,00002.497928,00001.622792,00002.709601,00002.620343,00002.701298,00003.121269,00002.075497,00000.977802,-00002.694741,-00000.283493,-00000.639132,-00000.289686,00000.000767,-00000.027698
0000000001139,00001.627145,00001.556661,00002.498349,00001.626731,00002.707207,00002.619975,00002.701952,00003.121149,00002.075970,00000.978609,-00002.678231,-00000.283784,-00000.641322,-00000.290870,00000.001016,-00000.027207
0000000001140,00001.627897,00001.556285,00002.498707,00001.631172,00002.704806,00002.620387,00002.701421,00003.122135,00002.076010,00000.979658,-00002.661273,-00000.285846,-00000.646088,-00000.292604,00000.000139,-00000.027878
0000000001141,00001.628007,00001.556288,00002.499395,00001.634042,00002.704240,00002.620373,00002.701617,00003.122551,00002.076315,00000.980098,-00002.652497,-00000.287112,-00000.648618,-00000.294158,-00000.000640,-00000.028354
0000000001142,00001.628268,00001.556330,00002.499961,00001.639211,00002.703369,00002.620000,00002.702587,00003.122603,00002.076667,00000.980200,-00002.638278,-00000.288316,-00000.653388,-00000.296491,-00000.000182,-00000.029217
0000000001143,00001.630667,00001.556003,00002.500079,00001.643973,00002.703352,00002.620046,00002.702687,00003.123009,00002.076603,00000.981376,-00002.626899,-00000.289705,-00000.657085,-00000.298478,00000.001296,-00000.030677
0000000001144,00001.632078,00001.556031,00002.500019,00001.646620,00002.703849,00002.620410,00002.702697,00003.123053,00002.076670,00000.982113,-00002.621474,-00000.290685,-00000.658310,-00000.299890,00000.000841,-00000.031680
0000000001145,00001.634273,00001.556474,00002.500129,00001.651732,00002.706664,00002.620395,00002.703869,00003.123030,00002.077694,00000.983367,-00002.614408,-00000.294623,-00000.659461,-00000.301734,00000.001442,-00000.032774
0000000001146,00001.636208,00001.556884,00002.499958,00001.654220,00002.707773,00002.620427,00002.704241,00003.122979,00002.077846,00000.983900,-00002.612956,-00000.296756,-00000.659084,-00000.301809,00000.002807,-00000.032924
0000000001147,00001.639240,00001.556837,00002.499714,00001.660015,00002.710004,00002.620772,00002.704458,00003.123692,00002.077970,00000.985251,-00002.610058,-00000.298703,-00000.657218,-00000.301554,00000.005292,-00000.034196
0000000001148,00001.642184,00001.557523,00002.499506,00001.666038,00002.711541,00002.621428,00002.704280,00003.123212,00002.078801,00000.986401,-00002.609768,-00000.297821,-00000.654179,-00000.302062,00000.007045,-00000.036367
0000000001149,00001.643397,00001.557808,00002.499019,00001.668795,00002.712473,00002.621242,00002.704207,00003.122780,00002.079106,00000.986688,-00002.610996,-00000.297424,-00000.653331,-00000.302139,00000.008003,-00000.037288
0000000001150,00001.645723,00001.558349,00002.498552,00001.675326,00002.714368,00002.621466,00002.704429,00003.122797,00002.079768,00000.987261,-00002.614194,-00000.295281,-00000.651232,-00000.302923,00000.010441,-00000.040087
0000000001151,00001.647341,00001.558448,00002.498517,00001.680523,00002.715619,00002.622382,00002.704255,00003.122812,00002.079969,00000.987749,-00002.615466,-00000.292731,-00000.650171,-00000.304679,00000.011428,-00000.042108
0000000001152,00001.647915,00001.558718,00002.498163,00001.682666,00002.716517,00002.622242,00002.704560,00003.122829,00002.080315,00000.987988,-00002.615058,-00000.292736,-00000.650479,-00000.305245,00000.011669,-00000.043406
0000000001153,00001.649207,00001.558762,00002.497823,00001.686772,00002.717447,00002.622680,00002.704730,00003.122476,00002.080797,00000.988368,-00002.615113,-00000.294193,-00000.649893,-00000.305930,00000.013199,-00000.046384
0000000001154,00001.650669,00001.558436,00002.497534,00001.689904,00002.718966,00002.623415,00002.704511,00003.122902,00002.080482,00000.989417,-00002.617336,-00000.297609,-00000.652659,-00000.309052,00000.013776,-00000.048193
0000000001155,00001.651613,00001.558663,00002.497507,00001.691294,00002.719658,00002.623865,00002.704445,00003.122845,00002.080310,00000.989854,-00002.617612,-00000.298745,-00000.654585,-00000.310805,00000.013485,-00000.048200
0000000001156,00001.653080,00001.559077,00002.496539,00001.694842,00002.721573,00002.625150,00002.704269,00003.122491,00002.080793,00000.991771,-00002.615110,-00000.299671,-00000.657017,-00000.312840,00000.014019,-00000.048288
0000000001157,00001.654008,00001.559265,00002.496407,00001.696963,00002.723898,00002.625972,00002.704166,00003.122955,00002.081020,00000.992831,-00002.613600,-00000.300253,-00000.658671,-00000.313919,00000.014430,-00000.048722
0000000001158,00001.655482,00001.559590,00002.495966,00001.700393,00002.730987,00002.626581,00002.704394,00003.122584,00002.081761,00000.994668,-00002.611695,-00000.302769,-00000.661583,-00000.315854,00000.014461,-00000.049458
0000000001159,00001.657099,00001.559866,00002.495590,00001.702951,00002.737748,00002.628550,00002.704588,00003.122630,00002.082391,00000.996957,-00002.609347,-00000.305636,-00000.661522,-00000.316775,00000.014125,-00000.049723
0000000001160,00001.657595,00001.559986,00002.495352,00001.704446,00002.741063,00002.629781,00002.704862,00003.122601,00002.082833,00000.998722,-00002.607185,-00000.307662,-00000.661277,-00000.317202,00000.013794,-00000.049626
0000000001161,00001.659261,00001.560203,00002.495430,00001.707127,00002.746688,00002.632363,00002.704624,00003.122645,00002.083666,00001.001497,-00002.603694,-00000.311978,-00000.659448,-00000.318648,00000.013194,-00000.050228
0000000001162,00001.660679,00001.560389,00002.495860,00001.709409,00002.751477,00002.634561,00002.704058,00003.123408,00002.084013,00001.004585,-00002.603625,-00000.312024,-00000.654989,-00000.318791,00000.014134,-00000.050741
0000000001163,00001.661681,00001.560836,00002.495701,00001.711155,00002.753771,00002.636081,00002.704296,00003.123768,00002.084707,00001.005815,-00002.603031,-00000.310173,-00000.652642,-00000.318279,00000.014884,-00000.050974
0000000001164,00001.662739,00001.561290,00002.495002,00001.713926,00002.756418,00002.637364,00002.704142,00003.123276,00002.084899,00001.007898,-00002.602698,-00000.307586,-00000.650284,-00000.318476,00000.015210,-00000.051738
0000000001165,00001.663277,00001.561313,00002.495132,00001.714835,00002.759397,00002.637730,00002.704373,00003.122857,00002.084700,00001.008582,-00002.606042,-00000.307922,-00000.649364,-00000.320096,00000.015488,-00000.051663
0000000001166,00001.663327,00001.561367,00002.494932,00001.715457,00002.760735,00002.637884,00002.704786,00003.122442,00002.085037,00001.008661,-00002.607185,-00000.308624,-00000.648568,-00000.320648,00000.016204,-00000.052536
0000000001167,00001.663415,00001.561016,00002.494348,00001.716500,00002.760895,00002.637447,00002.704559,00003.122147,00002.084091,00001.009595,-00002.603331,-00000.310621,-00000.650443,-00000.320856,00000.017060,-00000.055608
0000000001168,00001.663454,00001.560988,00002.494303,00001.717300,00002.760155,00002.637635,00002.704321,00003.122197,00002.083969,00001.010024,-00002.601585,-00000.311140,-00000.652576,-00000.320942,00000.017215,-00000.056610
0000000001169,00001.664249,00001.561057,00002.493449,00001.718795,00002.758951,00002.637961,00002.704163,00003.121938,00002.083908,00001.010393,-00002.602193,-00000.313487,-00000.656032,-00000.321470,00000.018283,-00000.058713
0000000001170,00001.664925,00001.561115,00002.493448,00001.720068,00002.761190,00002.640052,00002.704029,00003.121718,00002.083856,00001.013246,-00002.598719,-00000.315486,-00000.659699,-00000.322644,00000.018467,-00000.060140
0000000001171,00001.665214,00001.560819,00002.493428,00001.723197,00002.762009,00002.641515,00002.704061,00003.121863,00002.083887,00001.014900,-00002.595501,-00000.316387,-00000.661876,-00000.322656,00000.018211,-00000.060058
0000000001172,00001.665385,00001.560550,00002.492704,00001.728894,00002.764157,00002.643078,00002.703942,00003.121291,00002.083838,00001.017809,-00002.590846,-00000.318318,-00000.665762,-00000.322203,00000.018405,-00000.060560
0000000001173,00001.666046,00001.560589,00002.492411,00001.732202,00002.765083,00002.644382,00002.704180,00003.121009,00002.084137,00001.019449,-00002.587817,-00000.318999,-00000.667857,-00000.322172,00000.018447,-00000.062243
0000000001174,00001.666818,00001.561806,00002.492201,00001.739462,00002.767136,00002.646244,00002.704768,00003.120564,00002.084414,00001.022769,-00002.579950,-00000.319815,-00000.672305,-00000.323242,00000.017518,-00000.064597
0000000001175,00001.667475,00001.563204,00002.491660,00001.745643,00002.768884,00002.648555,00002.704544,00003.120911,00002.085012,00001.025959,-00002.576156,-00000.320510,-00000.675729,-00000.324515,00000.016727,-00000.065150
0000000001176,00001.667990,00001.563844,00002.491788,00001.748338,00002.770626,00002.649408,00002.705241,00003.121072,00002.085700,00001.027400,-00002.575081,-00000.321724,-00000.677398,-00000.324731,00000.016970,-00000.065046
0000000001177,00001.669198,00001.564939,00002.491308,00001.753199,00002.772944,00002.650886,00002.705672,00003.120618,00002.086107,00001.029538,-00002.572374,-00000.323223,-00000.681516,-00000.325783,00000.016986,-00000.067708
0000000001178,00001.670227,00001.565871,00002.491625,00001.756975,00002.774917,00002.652143,00002.705676,00003.121320,00002.086454,00001.031721,-00002.571157,-00000.325226,-00000.682120,-00000.325953,00000.017363,-00000.071063
0000000001179,00001.670886,00001.566216,00002.491770,00001.758472,00002.776093,00002.652687,00002.705821,00003.121463,00002.086588,00001.032691,-00002.571935,-00000.326498,-00000.681797,-00000.326374,00000.017487,-00000.072306
0000000001180,00001.671664,00001.566958,00002.491655,00001.761100,00002.777960,00002.652589,00002.706528,00003.121314,00002.086863,00001.034042,-00002.571872,-00000.328376,-00000.683084,-00000.328271,00000.016701,-00000.075341
0000000001181,00001.671849,00001.567703,00002.491816,00001.762253,00002.779060,00002.652419,00002.706716,00003.121446,00002.087000,00001.034490,-00002.571819,-00000.328273,-00000.683487,-00000.329325,00000.015833,-00000.075988
0000000001182,00001.672847,00001.568224,00002.491694,00001.764319,00002.779761,00002.653086,00002.706202,00003.121662,00002.086851,00001.035937,-00002.573587,-00000.326985,-00000.682346,-00000.330057,00000.015656,-00000.075573
0000000001183,00001.673253,00001.568800,00002.491475,00001.765243,00002.780541,00002.653159,00002.706300,00003.121441,00002.086934,00001.038712,-00002.573479,-00000.326997,-00000.682372,-00000.330534,00000.015932,-00000.076093
0000000001184,00001.674042,00001.569884,00002.491041,00001.767953,00002.781384,00002.654441,00002.706573,00003.121295,00002.087883,00001.046424,-00002.572098,-00000.325898,-00000.682848,-00000.331086,00000.015740,-00000.074936
0000000001185,00001.675802,00001.570806,00002.491035,00001.771348,00002.782464,00002.656258,00002.706806,00003.121171,00002.089417,00001.053352,-00002.570197,-00000.323149,-00000.680714,-00000.330831,00000.016665,-00000.072863
0000000001186,00001.678025,00001.571592,00002.491030,00001.775327,00002.784110,00002.657806,00002.706641,00003.121065,00002.091085,00001.059975,-00002.565676,-00000.318995,-00000.676720,-00000.332790,00000.016726,-00000.074726
0000000001187,00001.679179,00001.571958,00002.491186,00001.778044,00002.784699,00002.659000,00002.706450,00003.121136,00002.092030,00001.063315,-00002.561599,-00000.316580,-00000.673517,-00000.333868,00000.016223,-00000.076169
0000000001188,00001.680281,00001.572260,00002.491751,00001.781254,00002.785148,00002.659848,00002.706501,00003.121700,00002.092868,00001.066339,-00002.556023,-00000.315458,-00000.670055,-00000.334458,00000.016053,-00000.076675
0000000001189,00001.681839,00001.572829,00002.492002,00001.787025,00002.786032,00002.661224,00002.706745,00003.121516,00002.094024,00001.071757,-00002.545265,-00000.315350,-00000.663656,-00000.333338,00000.016568,-00000.078334
0000000001190,00001.683528,00001.572951,00002.492578,00001.793389,00002.786784,00002.662396,00002.707315,00003.121721,00002.095370,00001.079997,-00002.530303,-00000.315983,-00000.659296,-00000.332022,00000.015918,-00000.080109
0000000001191,00001.684240,00001.573231,00002.492938,00001.797714,00002.787147,00002.663232,00002.707460,00003.122074,00002.095998,00001.084019,-00002.521046,-00000.317205,-00000.658871,-00000.332006,00000.014737,-00000.080366
0000000001192,00001.685209,00001.573656,00002.493375,00001.805754,00002.788097,00002.664468,00002.707923,00003.122197,00002.097777,00001.090798,-00002.503155,-00000.320102,-00000.659214,-00000.331614,00000.012908,-00000.078573
0000000001193,00001.685827,00001.573815,00002.493850,00001.809101,00002.788695,00002.665222,00002.707542,00003.122717,00002.098163,00001.093964,-00002.495667,-00000.321011,-00000.658779,-00000.330512,00000.012987,-00000.077371
0000000001194,00001.685834,00001.574153,00002.493789,00001.815448,00002.789777,00002.665799,00002.707993,00003.122381,00002.099619,00001.099628,-00002.478647,-00000.322254,-00000.660587,-00000.329616,00000.012145,-00000.074936
0000000001195,00001.685115,00001.573715,00002.495188,00001.820125,00002.790335,00002.666291,00002.708015,00003.122821,00002.099045,00001.104449,-00002.458716,-00000.324763,-00000.666842,-00000.329942,00000.010339,-00000.073951
0000000001196,00001.684503,00001.573705,00002.496016,00001.823744,00002.791173,00002.665983,00002.708396,00003.122832,00002.098919,00001.108916,-00002.438121,-00000.326536,-00000.671804,-00000.328769,00000.009527,-00000.072750
0000000001197,00001.684051,00001.573876,00002.496155,00001.825275,00002.791565,00002.666220,00002.708736,00003.122476,00002.098865,00001.111110,-00002.428076,-00000.326533,-00000.673452,-00000.328209,00000.008833,-00000.073184
0000000001198,00001.683619,00001.573696,00002.496359,00001.826825,00002.791886,00002.666084,00002.708720,00003.122479,00002.098812,00001.113445,-00002.417687,-00000.326957,-00000.674940,-00000.328495,00000.007385,-00000.073904
0000000001199,00001.683592,00001.572964,00002.498101,00001.830536,00002.792131,00002.666896,00002.708271,00003.122905,00002.097995,00001.118388,-00002.394848,-00000.328767,-00000.681238,-00000.330076,00000.003021,-00000.073436
0000000001200,00001.683206,00001.572703,00002.499222,00001.834420,00002.792339,00002.667224,00002.708614,00003.122904,00002.097299,00001.122596,-00002.374318,-00000.331396,-00000.685873,-00000.329245,00000.001847,-00000.071949
0000000001201,00001.682878,00001.573206,00002.499813,00001.839542,00002.792879,00002.667140,00002.709269,00003.122903,00002.098159,00001.126542,-00002.354664,-00000.332908,-00000.688005,-00000.329263,00000.001209,-00000.071045
0000000001202,00001.682864,00001.573420,00002.500388,00001.842130,00002.793533,00002.667219,00002.709572,00003.122940,00002.098524,00001.128505,-00002.346507,-00000.333571,-00000.688794,-00000.329439,00000.001093,-00000.070107
0000000001203,00001.683312,00001.573091,00002.501531,00001.845742,00002.793895,00002.668225,00002.709359,00003.123659,00002.098838,00001.131934,-00002.336793,-00000.332946,-00000.689403,-00000.329791,00000.001293,-00000.068389
0000000001204,00001.684120,00001.572965,00002.502088,00001.847196,00002.794401,00002.668715,00002.709629,00003.123936,00002.099204,00001.133069,-00002.333469,-00000.332498,-00000.688464,-00000.329184,00000.001965,-00000.068332
0000000001205,00001.685470,00001.573429,00002.502253,00001.850054,00002.794997,00002.669498,00002.709771,00003.124145,00002.099780,00001.135094,-00002.328596,-00000.333846,-00000.688034,-00000.329212,00000.001310,-00000.068692
0000000001206,00001.685893,00001.573462,00002.502031,00001.851762,00002.795505,00002.669439,00002.709891,00003.124322,00002.100270,00001.136818,-00002.332066,-00000.331366,-00000.682589,-00000.328147,00000.000389,-00000.067547
0000000001207,00001.685891,00001.573489,00002.502205,00001.852128,00002.795574,00002.669389,00002.709993,00003.124473,00002.100325,00001.137198,-00002.341188,-00000.323813,-00000.675051,-00000.325789,00000.001057,-00000.068387
0000000001208,00001.686090,00001.574035,00002.501921,00001.852649,00002.795274,00002.670131,00002.710216,00003.124456,00002.100542,00001.137597,-00002.345791,-00000.319901,-00000.673433,-00000.325476,00000.001010,-00000.069187
0000000001209,00001.685889,00001.574601,00002.501627,00001.853165,00002.795270,00002.670435,00002.710443,00003.123876,00002.100734,00001.137884,-00002.350767,-00000.315570,-00000.671900,-00000.324870,00000.000537,-00000.069102
0000000001210,00001.686058,00001.575066,00002.501385,00001.853609,00002.795377,00002.671067,00002.710269,00003.124225,00002.100919,00001.138223,-00002.356500,-00000.311513,-00000.670159,-00000.323878,00000.000497,-00000.068694
0000000001211,00001.686250,00001.575911,00002.501135,00001.854047,00002.795374,00002.671325,00002.710463,00003.124094,00002.101082,00001.138467,-00002.362187,-00000.307463,-00000.668128,-00000.322636,00000.000820,-00000.068984
0000000001212,00001.686757,00001.576306,00002.500929,00001.854062,00002.795828,00002.671500,00002.710315,00003.124390,00002.101240,00001.139119,-00002.368156,-00000.303284,-00000.665921,-00000.321792,00000.001511,-00000.070451
0000000001213,00001.687283,00001.577026,00002.500353,00001.854436,00002.795826,00002.672083,00002.710480,00003.124279,00002.101379,00001.139690,-00002.374448,-00000.299837,-00000.665281,-00000.321823,00000.001424,-00000.071424
0000000001214,00001.687715,00001.577725,00002.500178,00001.854449,00002.796212,00002.672595,00002.710717,00003.124531,00002.101513,00001.139882,-00002.381343,-00000.297368,-00000.665215,-00000.322193,00000.000924,-00000.071222
0000000001215,00001.688162,00001.578337,00002.500051,00001.854404,00002.796210,00002.673454,00002.710495,00003.124799,00002.101631,00001.140005,-00002.388877,-00000.296247,-00000.664670,-00000.322220,00000.001212,-00000.070236
0000000001216,00001.688893,00001.578933,00002.499902,00001.854052,00002.796176,00002.674252,00002.710334,00003.125014,00002.101745,00001.140169,-00002.395472,-00000.295959,-00000.663163,-00000.321446,00000.002238,-00000.069701
0000000001217,00001.689274,00001.580180,00002.499430,00001.853651,00002.796537,00002.674983,00002.710507,00003.124516,00002.102209,00001.140274,-00002.401523,-00000.296455,-00000.661248,-00000.320380,00000.003209,-00000.069950
0000000001218,00001.689533,00001.581049,00002.498941,00001.852989,00002.796508,00002.675663,00002.710733,00003.124337,00002.102306,00001.140413,-00002.406412,-00000.297299,-00000.660691,-00000.319722,00000.003356,-00000.070583
0000000001219,00001.690220,00001.581748,00002.498902,00001.852648,00002.796815,00002.676286,00002.710880,00003.124276,00002.102701,00001.140865,-00002.409749,-00000.298084,-00000.661238,-00000.319903,00000.003094,-00000.070432
0000000001220,00001.691166,00001.582488,00002.498486,00001.852446,00002.796791,00002.677590,00002.710710,00003.124123,00002.103146,00001.141346,-00002.411372,-00000.298077,-00000.661489,-00000.320068,00000.002857,-00000.070246
0000000001221,00001.692114,00001.583083,00002.498453,00001.852156,00002.797053,00002.678120,00002.710473,00003.124071,00002.103120,00001.141368,-00002.412036,-00000.297294,-00000.661228,-00000.319859,00000.003360,-00000.071568
0000000001222,00001.692919,00001.583713,00002.498098,00001.852348,00002.797395,00002.678505,00002.710690,00003.123941,00002.103862,00001.141052,-00002.413054,-00000.296562,-00000.660717,-00000.319637,00000.004609,-00000.074675
0000000001223,00001.693726,00001.584582,00002.498070,00001.852100,00002.797617,00002.678956,00002.710851,00003.123897,00002.104202,00001.141071,-00002.412894,-00000.295534,-00000.659407,-00000.319096,00000.005762,-00000.078703
