0000000000696,00002.382813,00001.679688,00002.573242,00002.968750,00002.905273,00002.949219,00002.797852,00003.291016,00002.402344,00001.972656,-00000.498047,-00000.122070,-00000.625000,-00000.117188,00000.043945,-00000.214844
0000000000697,00002.373047,00001.679688,00002.568359,00002.958984,00002.900391,00002.944336,00002.792969,00003.286133,00002.397461,00001.972656,-00000.498047,-00000.122070,-00000.625000,-00000.117188,00000.043945,-00000.219727
0000000000698,00002.377930,00001.669922,00002.573242,00002.944336,00002.905273,00002.939453,00002.797852,00003.291016,00002.397461,00001.972656,-00000.502930,-00000.122070,-00000.620117,-00000.117188,00000.039063,-00000.214844
0000000000699,00002.373047,00001.669922,00002.578125,00002.944336,00002.910156,00002.939453,00002.797852,00003.291016,00002.397461,00001.972656,-00000.507813,-00000.117188,-00000.615234,-00000.112305,00000.034180,-00000.219727
0000000000700,00002.368164,00001.660156,00002.573242,00002.944336,00002.900391,00002.944336,00002.797852,00003.291016,00002.392578,00001.972656,-00000.507813,-00000.117188,-00000.615234,-00000.112305,00000.029297,-00000.209961
0000000000701,00002.363281,00001.660156,00002.573242,00002.934570,00002.905273,00002.939453,00002.792969,00003.291016,00002.387695,00001.972656,-00000.507813,-00000.117188,-00000.615234,-00000.112305,00000.034180,-00000.214844
0000000000702,00002.363281,00001.655273,00002.573242,00002.939453,00002.905273,00002.939453,00002.797852,00003.291016,00002.392578,00001.972656,-00000.502930,-00000.117188,-00000.610352,-00000.107422,00000.039063,-00000.219727
0000000000703,00002.358398,00001.655273,00002.573242,00002.944336,00002.905273,00002.944336,00002.802734,00003.291016,00002.392578,00001.972656,-00000.502930,-00000.117188,-00000.610352,-00000.112305,00000.039063,-00000.219727
0000000000704,00002.353516,00001.650391,00002.568359,00002.949219,00002.900391,00002.939453,00002.797852,00003.286133,00002.387695,00001.967773,-00000.498047,-00000.117188,-00000.610352,-00000.107422,00000.043945,-00000.219727
0000000000705,00002.358398,00001.650391,00002.573242,00002.949219,00002.900391,00002.944336,00002.792969,00003.291016,00002.387695,00001.972656,-00000.493164,-00000.117188,-00000.610352,-00000.107422,00000.048828,-00000.219727
0000000000706,00002.358398,00001.650391,00002.568359,00002.954102,00002.900391,00002.944336,00002.792969,00003.291016,00002.387695,00001.967773,-00000.493164,-00000.117188,-00000.610352,-00000.107422,00000.058594,-00000.219727
0000000000707,00002.353516,00001.650391,00002.568359,00002.954102,00002.900391,00002.939453,00002.797852,00003.286133,00002.387695,00001.962891,-00000.493164,-00000.117188,-00000.605469,-00000.107422,00000.058594,-00000.224609
0000000000708,00002.348633,00001.650391,00002.568359,00002.958984,00002.895508,00002.939453,00002.792969,00003.286133,00002.387695,00001.948242,-00000.488281,-00000.112305,-00000.600586,-00000.107422,00000.053711,-00000.229492
0000000000709,00002.348633,00001.655273,00002.568359,00002.954102,00002.900391,00002.939453,00002.792969,00003.281250,00002.387695,00001.943359,-00000.488281,-00000.112305,-00000.600586,-00000.107422,00000.048828,-00000.229492
0000000000710,00002.348633,00001.650391,00002.568359,00002.949219,00002.900391,00002.934570,00002.792969,00003.286133,00002.387695,00001.938477,-00000.488281,-00000.112305,-00000.605469,-00000.107422,00000.048828,-00000.224609
0000000000711,00002.358398,00001.645508,00002.568359,00002.954102,00002.900391,00002.934570,00002.792969,00003.286133,00002.387695,00001.938477,-00000.488281,-00000.117188,-00000.605469,-00000.107422,00000.048828,-00000.224609
0000000000712,00002.358398,00001.650391,00002.573242,00002.958984,00002.905273,00002.939453,00002.797852,00003.286133,00002.392578,00001.943359,-00000.488281,-00000.117188,-00000.605469,-00000.107422,00000.048828,-00000.219727
0000000000713,00002.358398,00001.650391,00002.573242,00002.958984,00002.905273,00002.939453,00002.797852,00003.291016,00002.392578,00001.948242,-00000.488281,-00000.117188,-00000.610352,-00000.107422,00000.039063,-00000.219727
0000000000714,00002.358398,00001.650391,00002.573242,00002.958984,00002.905273,00002.939453,00002.797852,00003.286133,00002.387695,00001.948242,-00000.483398,-00000.117188,-00000.605469,-00000.107422,00000.039063,-00000.214844
0000000000715,00002.363281,00001.650391,00002.592773,00002.958984,00002.900391,00002.944336,00002.792969,00003.291016,00002.387695,00001.948242,-00000.488281,-00000.117188,-00000.610352,-00000.107422,00000.039063,-00000.214844
0000000000716,00002.358398,00001.650391,00002.592773,00002.958984,00002.905273,00002.939453,00002.797852,00003.291016,00002.387695,00001.943359,-00000.488281,-00000.122070,-00000.610352,-00000.107422,00000.039063,-00000.214844
0000000000717,00002.363281,00001.650391,00002.578125,00002.963867,00002.900391,00002.944336,00002.792969,00003.291016,00002.392578,00001.938477,-00000.488281,-00000.117188,-00000.610352,-00000.107422,00000.043945,-00000.214844
0000000000718,00002.368164,00001.650391,00002.578125,00002.958984,00002.900391,00002.939453,00002.792969,00003.291016,00002.387695,00001.938477,-00000.488281,-00000.117188,-00000.605469,-00000.107422,00000.048828,-00000.219727
0000000000719,00002.363281,00001.650391,00002.568359,00002.958984,00002.900391,00002.939453,00002.792969,00003.291016,00002.387695,00001.938477,-00000.488281,-00000.117188,-00000.610352,-00000.107422,00000.048828,-00000.224609
0000000000720,00002.368164,00001.650391,00002.573242,00002.958984,00002.900391,00002.939453,00002.797852,00003.291016,00002.392578,00001.938477,-00000.488281,-00000.122070,-00000.610352,-00000.107422,00000.043945,-00000.224609
0000000000721,00002.368164,00001.650391,00002.573242,00002.958984,00002.900391,00002.939453,00002.792969,00003.291016,00002.387695,00001.943359,-00000.488281,-00000.117188,-00000.610352,-00000.107422,00000.043945,-00000.229492
0000000000722,00002.358398,00001.650391,00002.563477,00002.958984,00002.895508,00002.939453,00002.792969,00003.281250,00002.387695,00001.928711,-00000.488281,-00000.117188,-00000.605469,-00000.107422,00000.043945,-00000.224609
0000000000723,00002.368164,00001.650391,00002.573242,00002.963867,00002.905273,00002.944336,00002.797852,00003.295898,00002.392578,00001.938477,-00000.488281,-00000.117188,-00000.605469,-00000.107422,00000.039063,-00000.219727
0000000000724,00002.368164,00001.650391,00002.573242,00002.958984,00002.900391,00002.939453,00002.792969,00003.291016,00002.387695,00001.938477,-00000.488281,-00000.117188,-00000.605469,-00000.107422,00000.043945,-00000.219727
0000000000725,00002.363281,00001.650391,00002.573242,00002.963867,00002.900391,00002.944336,00002.792969,00003.291016,00002.387695,00001.933594,-00000.488281,-00000.112305,-00000.605469,-00000.107422,00000.048828,-00000.219727
0000000000726,00002.358398,00001.655273,00002.563477,00002.963867,00002.900391,00002.939453,00002.792969,00003.286133,00002.392578,00001.928711,-00000.488281,-00000.112305,-00000.605469,-00000.107422,00000.039063,-00000.219727
0000000000727,00002.358398,00001.655273,00002.568359,00002.963867,00002.895508,00002.939453,00002.797852,00003.286133,00002.392578,00001.933594,-00000.483398,-00000.117188,-00000.610352,-00000.107422,00000.039063,-00000.214844
0000000000728,00002.368164,00001.655273,00002.573242,00002.963867,00002.895508,00002.944336,00002.792969,00003.291016,00002.387695,00001.933594,-00000.483398,-00000.112305,-00000.605469,-00000.107422,00000.043945,-00000.219727
0000000000729,00002.363281,00001.655273,00002.568359,00002.963867,00002.895508,00002.944336,00002.792969,00003.291016,00002.387695,00001.933594,-00000.483398,-00000.112305,-00000.605469,-00000.107422,00000.048828,-00000.219727
0000000000730,00002.363281,00001.655273,00002.568359,00002.958984,00002.900391,00002.934570,00002.797852,00003.286133,00002.392578,00001.933594,-00000.478516,-00000.112305,-00000.605469,-00000.107422,00000.048828,-00000.219727
0000000000731,00002.368164,00001.660156,00002.568359,00002.963867,00002.895508,00002.934570,00002.792969,00003.281250,00002.392578,00001.928711,-00000.478516,-00000.112305,-00000.605469,-00000.107422,00000.043945,-00000.219727
0000000000732,00002.368164,00001.660156,00002.568359,00002.963867,00002.900391,00002.939453,00002.797852,00003.291016,00002.397461,00001.933594,-00000.478516,-00000.112305,-00000.610352,-00000.107422,00000.043945,-00000.219727
0000000000733,00002.373047,00001.660156,00002.573242,00002.963867,00002.900391,00002.944336,00002.792969,00003.291016,00002.392578,00001.933594,-00000.478516,-00000.112305,-00000.610352,-00000.112305,00000.039063,-00000.214844
0000000000734,00002.368164,00001.660156,00002.568359,00002.963867,00002.895508,00002.939453,00002.792969,00003.286133,00002.392578,00001.928711,-00000.478516,-00000.112305,-00000.610352,-00000.112305,00000.034180,-00000.219727
0000000000735,00002.368164,00001.665039,00002.568359,00002.963867,00002.905273,00002.934570,00002.797852,00003.286133,00002.397461,00001.933594,-00000.478516,-00000.117188,-00000.610352,-00000.112305,00000.034180,-00000.219727
0000000000736,00002.368164,00001.660156,00002.568359,00002.963867,00002.900391,00002.939453,00002.792969,00003.291016,00002.392578,00001.938477,-00000.478516,-00000.112305,-00000.610352,-00000.112305,00000.029297,-00000.224609
0000000000737,00002.368164,00001.665039,00002.568359,00002.958984,00002.905273,00002.939453,00002.797852,00003.286133,00002.397461,00001.933594,-00000.478516,-00000.112305,-00000.610352,-00000.107422,00000.034180,-00000.229492
0000000000738,00002.373047,00001.660156,00002.573242,00002.963867,00002.900391,00002.939453,00002.792969,00003.291016,00002.397461,00001.933594,-00000.478516,-00000.112305,-00000.610352,-00000.112305,00000.034180,-00000.234375
0000000000739,00002.368164,00001.665039,00002.568359,00002.958984,00002.905273,00002.939453,00002.797852,00003.291016,00002.392578,00001.933594,-00000.478516,-00000.112305,-00000.610352,-00000.112305,00000.034180,-00000.229492
0000000000740,00002.368164,00001.669922,00002.568359,00002.958984,00002.905273,00002.939453,00002.792969,00003.286133,00002.397461,00001.933594,-00000.478516,-00000.112305,-00000.610352,-00000.107422,00000.039063,-00000.229492
0000000000741,00002.368164,00001.669922,00002.568359,00002.968750,00002.900391,00002.939453,00002.797852,00003.286133,00002.397461,00001.933594,-00000.478516,-00000.112305,-00000.605469,-00000.107422,00000.034180,-00000.224609
0000000000742,00002.368164,00001.669922,00002.563477,00002.963867,00002.900391,00002.939453,00002.797852,00003.286133,00002.397461,00001.933594,-00000.478516,-00000.112305,-00000.605469,-00000.107422,00000.029297,-00000.219727
0000000000743,00002.363281,00001.660156,00002.573242,00002.958984,00002.900391,00002.939453,00002.792969,00003.291016,00002.392578,00001.938477,-00000.473633,-00000.112305,-00000.605469,-00000.107422,00000.029297,-00000.214844
0000000000744,00002.363281,00001.660156,00002.568359,00002.958984,00002.895508,00002.939453,00002.788086,00003.291016,00002.387695,00001.933594,-00000.473633,-00000.112305,-00000.605469,-00000.107422,00000.029297,-00000.214844
0000000000745,00002.363281,00001.660156,00002.568359,00002.958984,00002.900391,00002.939453,00002.792969,00003.291016,00002.387695,00001.933594,-00000.478516,-00000.112305,-00000.610352,-00000.112305,00000.024414,-00000.214844
0000000000746,00002.358398,00001.655273,00002.568359,00002.954102,00002.905273,00002.939453,00002.797852,00003.291016,00002.387695,00001.933594,-00000.478516,-00000.112305,-00000.605469,-00000.107422,00000.024414,-00000.219727
0000000000747,00002.358398,00001.655273,00002.573242,00002.963867,00002.905273,00002.944336,00002.797852,00003.291016,00002.387695,00001.914063,-00000.473633,-00000.112305,-00000.605469,-00000.107422,00000.029297,-00000.219727
0000000000748,00002.348633,00001.650391,00002.568359,00002.963867,00002.900391,00002.939453,00002.792969,00003.291016,00002.387695,00001.899414,-00000.478516,-00000.112305,-00000.605469,-00000.107422,00000.029297,-00000.224609
0000000000749,00002.348633,00001.650391,00002.568359,00002.954102,00002.905273,00002.939453,00002.797852,00003.291016,00002.387695,00001.899414,-00000.478516,-00000.112305,-00000.605469,-00000.107422,00000.034180,-00000.229492
0000000000750,00002.343750,00001.650391,00002.563477,00002.958984,00002.895508,00002.934570,00002.797852,00003.286133,00002.387695,00001.894531,-00000.478516,-00000.112305,-00000.605469,-00000.107422,00000.029297,-00000.229492
0000000000751,00002.348633,00001.650391,00002.568359,00002.954102,00002.905273,00002.939453,00002.792969,00003.291016,00002.382813,00001.899414,-00000.478516,-00000.112305,-00000.605469,-00000.107422,00000.029297,-00000.229492
0000000000752,00002.348633,00001.650391,00002.568359,00002.958984,00002.895508,00002.939453,00002.792969,00003.291016,00002.387695,00001.899414,-00000.478516,-00000.107422,-00000.600586,-00000.107422,00000.029297,-00000.229492
0000000000753,00002.343750,00001.655273,00002.568359,00002.958984,00002.895508,00002.939453,00002.797852,00003.286133,00002.387695,00001.894531,-00000.478516,-00000.107422,-00000.605469,-00000.107422,00000.029297,-00000.234375
0000000000754,00002.353516,00001.650391,00002.568359,00002.954102,00002.900391,00002.939453,00002.792969,00003.291016,00002.387695,00001.889648,-00000.478516,-00000.112305,-00000.610352,-00000.112305,00000.029297,-00000.234375
0000000000755,00002.358398,00001.655273,00002.563477,00002.958984,00002.900391,00002.939453,00002.792969,00003.286133,00002.387695,00001.879883,-00000.478516,-00000.112305,-00000.615234,-00000.117188,00000.024414,-00000.234375
0000000000756,00002.363281,00001.650391,00002.568359,00002.958984,00002.895508,00002.939453,00002.792969,00003.295898,00002.387695,00001.899414,-00000.478516,-00000.112305,-00000.615234,-00000.112305,00000.029297,-00000.234375
0000000000757,00002.358398,00001.660156,00002.568359,00002.954102,00002.900391,00002.934570,00002.797852,00003.286133,00002.387695,00001.899414,-00000.478516,-00000.112305,-00000.610352,-00000.112305,00000.029297,-00000.234375
0000000000758,00002.363281,00001.655273,00002.573242,00002.958984,00002.905273,00002.939453,00002.797852,00003.291016,00002.387695,00001.933594,-00000.478516,-00000.112305,-00000.605469,-00000.107422,00000.029297,-00000.234375
0000000000759,00002.358398,00001.655273,00002.568359,00002.954102,00002.900391,00002.934570,00002.797852,00003.291016,00002.387695,00001.933594,-00000.478516,-00000.112305,-00000.605469,-00000.112305,00000.029297,-00000.229492
0000000000760,00002.363281,00001.655273,00002.573242,00002.954102,00002.900391,00002.939453,00002.792969,00003.291016,00002.387695,00001.933594,-00000.478516,-00000.112305,-00000.610352,-00000.112305,00000.029297,-00000.224609
0000000000761,00002.368164,00001.665039,00002.563477,00002.963867,00002.895508,00002.939453,00002.792969,00003.286133,00002.392578,00001.928711,-00000.483398,-00000.112305,-00000.610352,-00000.112305,00000.024414,-00000.224609
0000000000762,00002.368164,00001.660156,00002.568359,00002.954102,00002.900391,00002.939453,00002.792969,00003.291016,00002.387695,00001.933594,-00000.483398,-00000.112305,-00000.610352,-00000.112305,00000.024414,-00000.224609
0000000000763,00002.368164,00001.660156,00002.563477,00002.963867,00002.900391,00002.939453,00002.792969,00003.286133,00002.392578,00001.933594,-00000.483398,-00000.112305,-00000.610352,-00000.112305,00000.029297,-00000.229492
0000000000764,00002.368164,00001.665039,00002.563477,00002.963867,00002.900391,00002.939453,00002.797852,00003.286133,00002.392578,00001.933594,-00000.483398,-00000.112305,-00000.610352,-00000.112305,00000.029297,-00000.229492
0000000000765,00002.368164,00001.665039,00002.568359,00002.963867,00002.900391,00002.939453,00002.797852,00003.286133,00002.397461,00001.933594,-00000.483398,-00000.112305,-00000.610352,-00000.112305,00000.024414,-00000.224609
0000000000766,00002.363281,00001.660156,00002.563477,00002.954102,00002.900391,00002.934570,00002.792969,00003.286133,00002.392578,00001.933594,-00000.483398,-00000.112305,-00000.610352,-00000.112305,00000.024414,-00000.224609
0000000000767,00002.368164,00001.660156,00002.543945,00002.963867,00002.900391,00002.939453,00002.797852,00003.291016,00002.392578,00001.933594,-00000.483398,-00000.112305,-00000.615234,-00000.112305,00000.029297,-00000.229492
0000000000768,00002.368164,00001.660156,00002.543945,00002.958984,00002.905273,00002.934570,00002.797852,00003.286133,00002.397461,00001.933594,-00000.483398,-00000.112305,-00000.610352,-00000.112305,00000.029297,-00000.229492
0000000000769,00002.368164,00001.660156,00002.543945,00002.954102,00002.900391,00002.934570,00002.792969,00003.286133,00002.387695,00001.933594,-00000.478516,-00000.117188,-00000.615234,-00000.112305,00000.029297,-00000.224609
0000000000770,00002.368164,00001.660156,00002.539063,00002.963867,00002.900391,00002.939453,00002.797852,00003.286133,00002.392578,00001.933594,-00000.488281,-00000.117188,-00000.615234,-00000.112305,00000.029297,-00000.229492
0000000000771,00002.368164,00001.660156,00002.539063,00002.963867,00002.900391,00002.944336,00002.792969,00003.291016,00002.392578,00001.933594,-00000.488281,-00000.112305,-00000.610352,-00000.112305,00000.029297,-00000.224609
0000000000772,00002.368164,00001.660156,00002.543945,00002.954102,00002.900391,00002.934570,00002.792969,00003.291016,00002.387695,00001.938477,-00000.488281,-00000.117188,-00000.610352,-00000.112305,00000.024414,-00000.219727
0000000000773,00002.373047,00001.660156,00002.543945,00002.958984,00002.905273,00002.939453,00002.792969,00003.295898,00002.392578,00001.938477,-00000.483398,-00000.117188,-00000.605469,-00000.112305,00000.024414,-00000.224609
0000000000774,00002.373047,00001.660156,00002.539063,00002.963867,00002.895508,00002.939453,00002.792969,00003.291016,00002.392578,00001.933594,-00000.488281,-00000.112305,-00000.615234,-00000.112305,00000.034180,-00000.224609
0000000000775,00002.368164,00001.660156,00002.539063,00002.958984,00002.895508,00002.939453,00002.792969,00003.291016,00002.387695,00001.933594,-00000.483398,-00000.117188,-00000.620117,-00000.112305,00000.034180,-00000.224609
0000000000776,00002.368164,00001.660156,00002.534180,00002.963867,00002.895508,00002.939453,00002.792969,00003.291016,00002.392578,00001.933594,-00000.483398,-00000.117188,-00000.615234,-00000.117188,00000.034180,-00000.224609
0000000000777,00002.368164,00001.665039,00002.539063,00002.963867,00002.905273,00002.939453,00002.797852,00003.291016,00002.397461,00001.933594,-00000.483398,-00000.117188,-00000.615234,-00000.112305,00000.034180,-00000.219727
0000000000778,00002.368164,00001.660156,00002.539063,00002.958984,00002.905273,00002.934570,00002.797852,00003.291016,00002.392578,00001.933594,-00000.483398,-00000.117188,-00000.620117,-00000.112305,00000.034180,-00000.219727
0000000000779,00002.363281,00001.665039,00002.539063,00002.958984,00002.905273,00002.934570,00002.802734,00003.291016,00002.397461,00001.933594,-00000.483398,-00000.117188,-00000.615234,-00000.117188,00000.034180,-00000.219727
0000000000780,00002.368164,00001.660156,00002.539063,00002.963867,00002.895508,00002.944336,00002.792969,00003.291016,00002.397461,00001.928711,-00000.478516,-00000.117188,-00000.615234,-00000.112305,00000.034180,-00000.214844
0000000000781,00002.368164,00001.660156,00002.543945,00002.963867,00002.905273,00002.939453,00002.792969,00003.295898,00002.392578,00001.938477,-00000.483398,-00000.122070,-00000.620117,-00000.117188,00000.034180,-00000.219727
0000000000782,00002.373047,00001.665039,00002.539063,00002.968750,00002.900391,00002.944336,00002.797852,00003.291016,00002.397461,00001.933594,-00000.483398,-00000.117188,-00000.615234,-00000.117188,00000.034180,-00000.219727
0000000000783,00002.373047,00001.665039,00002.543945,00002.963867,00002.905273,00002.939453,00002.802734,00003.295898,00002.402344,00001.938477,-00000.488281,-00000.117188,-00000.615234,-00000.117188,00000.034180,-00000.224609
0000000000784,00002.377930,00001.665039,00002.543945,00002.963867,00002.900391,00002.939453,00002.792969,00003.295898,00002.397461,00001.943359,-00000.488281,-00000.117188,-00000.615234,-00000.112305,00000.039063,-00000.224609
0000000000785,00002.363281,00001.665039,00002.539063,00002.958984,00002.905273,00002.934570,00002.797852,00003.291016,00002.397461,00001.953125,-00000.483398,-00000.112305,-00000.610352,-00000.107422,00000.039063,-00000.229492
0000000000786,00002.368164,00001.665039,00002.539063,00002.968750,00002.900391,00002.939453,00002.797852,00003.291016,00002.397461,00001.943359,-00000.483398,-00000.117188,-00000.610352,-00000.112305,00000.039063,-00000.229492
0000000000787,00002.363281,00001.660156,00002.539063,00002.963867,00002.895508,00002.939453,00002.792969,00003.291016,00002.392578,00001.938477,-00000.483398,-00000.117188,-00000.610352,-00000.112305,00000.034180,-00000.224609
0000000000788,00002.363281,00001.660156,00002.539063,00002.968750,00002.900391,00002.939453,00002.797852,00003.286133,00002.392578,00001.933594,-00000.483398,-00000.117188,-00000.615234,-00000.112305,00000.034180,-00000.224609
0000000000789,00002.363281,00001.650391,00002.539063,00002.958984,00002.895508,00002.939453,00002.792969,00003.291016,00002.392578,00001.923828,-00000.478516,-00000.117188,-00000.615234,-00000.112305,00000.039063,-00000.229492
0000000000790,00002.358398,00001.650391,00002.539063,00002.963867,00002.895508,00002.939453,00002.797852,00003.286133,00002.392578,00001.909180,-00000.478516,-00000.117188,-00000.610352,-00000.112305,00000.039063,-00000.229492
0000000000791,00002.353516,00001.650391,00002.548828,00002.963867,00002.895508,00002.939453,00002.792969,00003.291016,00002.387695,00001.904297,-00000.478516,-00000.112305,-00000.610352,-00000.112305,00000.039063,-00000.229492
0000000000792,00002.348633,00001.650391,00002.548828,00002.963867,00002.900391,00002.939453,00002.797852,00003.291016,00002.392578,00001.904297,-00000.473633,-00000.117188,-00000.610352,-00000.107422,00000.039063,-00000.224609
0000000000793,00002.343750,00001.650391,00002.558594,00002.963867,00002.900391,00002.934570,00002.797852,00003.286133,00002.387695,00001.889648,-00000.473633,-00000.117188,-00000.610352,-00000.112305,00000.039063,-00000.224609
0000000000794,00002.358398,00001.645508,00002.558594,00002.958984,00002.890625,00002.939453,00002.788086,00003.291016,00002.387695,00001.879883,-00000.478516,-00000.117188,-00000.615234,-00000.117188,00000.039063,-00000.224609
0000000000795,00002.363281,00001.650391,00002.568359,00002.958984,00002.900391,00002.939453,00002.792969,00003.291016,00002.387695,00001.894531,-00000.478516,-00000.117188,-00000.610352,-00000.112305,00000.043945,-00000.224609
0000000000796,00002.353516,00001.650391,00002.563477,00002.958984,00002.900391,00002.934570,00002.797852,00003.286133,00002.392578,00001.899414,-00000.473633,-00000.112305,-00000.610352,-00000.112305,00000.039063,-00000.224609
0000000000797,00002.353516,00001.650391,00002.563477,00002.958984,00002.895508,00002.934570,00002.788086,00003.291016,00002.387695,00001.904297,-00000.473633,-00000.112305,-00000.610352,-00000.112305,00000.039063,-00000.224609
0000000000798,00002.353516,00001.650391,00002.563477,00002.968750,00002.900391,00002.939453,00002.792969,00003.295898,00002.392578,00001.904297,-00000.473633,-00000.112305,-00000.610352,-00000.112305,00000.039063,-00000.224609
0000000000799,00002.358398,00001.650391,00002.553711,00002.963867,00002.895508,00002.939453,00002.792969,00003.291016,00002.392578,00001.899414,-00000.468750,-00000.112305,-00000.610352,-00000.117188,00000.039063,-00000.224609
0000000000800,00002.358398,00001.655273,00002.543945,00002.958984,00002.900391,00002.934570,00002.797852,00003.286133,00002.392578,00001.933594,-00000.468750,-00000.112305,-00000.610352,-00000.112305,00000.043945,-00000.219727
0000000000801,00002.363281,00001.655273,00002.553711,00002.963867,00002.905273,00002.939453,00002.802734,00003.295898,00002.397461,00001.938477,-00000.468750,-00000.112305,-00000.610352,-00000.112305,00000.043945,-00000.224609
0000000000802,00002.363281,00001.655273,00002.548828,00002.963867,00002.900391,00002.939453,00002.797852,00003.291016,00002.397461,00001.933594,-00000.468750,-00000.112305,-00000.610352,-00000.117188,00000.039063,-00000.219727
0000000000803,00002.368164,00001.655273,00002.543945,00002.963867,00002.895508,00002.939453,00002.792969,00003.295898,00002.392578,00001.933594,-00000.468750,-00000.117188,-00000.610352,-00000.117188,00000.039063,-00000.224609
0000000000804,00002.363281,00001.660156,00002.543945,00002.963867,00002.895508,00002.939453,00002.797852,00003.286133,00002.397461,00001.933594,-00000.468750,-00000.117188,-00000.615234,-00000.117188,00000.034180,-00000.219727
0000000000805,00002.368164,00001.660156,00002.548828,00002.963867,00002.900391,00002.939453,00002.792969,00003.291016,00002.392578,00001.933594,-00000.468750,-00000.112305,-00000.610352,-00000.117188,00000.034180,-00000.214844
0000000000806,00002.368164,00001.660156,00002.548828,00002.958984,00002.905273,00002.934570,00002.797852,00003.291016,00002.392578,00001.938477,-00000.468750,-00000.112305,-00000.615234,-00000.117188,00000.039063,-00000.214844
0000000000807,00002.368164,00001.660156,00002.548828,00002.958984,00002.900391,00002.934570,00002.797852,00003.291016,00002.392578,00001.943359,-00000.468750,-00000.112305,-00000.610352,-00000.117188,00000.039063,-00000.214844
0000000000808,00002.368164,00001.660156,00002.543945,00002.963867,00002.900391,00002.939453,00002.797852,00003.286133,00002.397461,00001.943359,-00000.468750,-00000.117188,-00000.615234,-00000.117188,00000.039063,-00000.214844
0000000000809,00002.363281,00001.665039,00002.543945,00002.958984,00002.900391,00002.934570,00002.797852,00003.291016,00002.397461,00001.948242,-00000.468750,-00000.117188,-00000.610352,-00000.117188,00000.043945,-00000.214844
0000000000810,00002.368164,00001.660156,00002.543945,00002.963867,00002.895508,00002.939453,00002.792969,00003.291016,00002.392578,00001.943359,-00000.468750,-00000.117188,-00000.615234,-00000.112305,00000.043945,-00000.219727
0000000000811,00002.368164,00001.660156,00002.548828,00002.958984,00002.900391,00002.939453,00002.792969,00003.291016,00002.392578,00001.953125,-00000.468750,-00000.112305,-00000.610352,-00000.112305,00000.048828,-00000.214844
0000000000812,00002.363281,00001.660156,00002.543945,00002.963867,00002.900391,00002.934570,00002.797852,00003.286133,00002.397461,00001.943359,-00000.473633,-00000.117188,-00000.610352,-00000.117188,00000.043945,-00000.214844
0000000000813,00002.368164,00001.660156,00002.548828,00002.958984,00002.905273,00002.934570,00002.797852,00003.291016,00002.397461,00001.943359,-00000.473633,-00000.117188,-00000.610352,-00000.117188,00000.043945,-00000.214844
0000000000814,00002.363281,00001.665039,00002.548828,00002.963867,00002.905273,00002.939453,00002.797852,00003.291016,00002.397461,00001.943359,-00000.473633,-00000.117188,-00000.610352,-00000.112305,00000.048828,-00000.214844
0000000000815,00002.363281,00001.660156,00002.548828,00002.958984,00002.905273,00002.939453,00002.797852,00003.291016,00002.397461,00001.943359,-00000.473633,-00000.117188,-00000.610352,-00000.112305,00000.048828,-00000.209961
0000000000816,00002.373047,00001.660156,00002.578125,00002.968750,00002.905273,00002.944336,00002.792969,00003.295898,00002.397461,00001.948242,-00000.468750,-00000.117188,-00000.610352,-00000.112305,00000.043945,-00000.209961
0000000000817,00002.368164,00001.660156,00002.563477,00002.958984,00002.900391,00002.934570,00002.797852,00003.291016,00002.397461,00001.943359,-00000.468750,-00000.112305,-00000.610352,-00000.112305,00000.048828,-00000.209961
0000000000818,00002.373047,00001.660156,00002.563477,00002.963867,00002.905273,00002.939453,00002.797852,00003.295898,00002.397461,00001.938477,-00000.468750,-00000.112305,-00000.605469,-00000.112305,00000.048828,-00000.214844
0000000000819,00002.368164,00001.660156,00002.543945,00002.963867,00002.900391,00002.939453,00002.792969,00003.295898,00002.397461,00001.938477,-00000.468750,-00000.117188,-00000.610352,-00000.112305,00000.048828,-00000.214844
0000000000820,00002.368164,00001.660156,00002.563477,00002.963867,00002.900391,00002.939453,00002.792969,00003.295898,00002.397461,00001.938477,-00000.468750,-00000.117188,-00000.605469,-00000.112305,00000.043945,-00000.214844
0000000000821,00002.368164,00001.660156,00002.558594,00002.968750,00002.900391,00002.944336,00002.792969,00003.300781,00002.402344,00001.938477,-00000.463867,-00000.112305,-00000.605469,-00000.112305,00000.048828,-00000.214844
0000000000822,00002.363281,00001.660156,00002.558594,00002.963867,00002.900391,00002.939453,00002.792969,00003.295898,00002.402344,00001.938477,-00000.468750,-00000.112305,-00000.610352,-00000.112305,00000.053711,-00000.214844
0000000000823,00002.363281,00001.665039,00002.558594,00002.968750,00002.900391,00002.939453,00002.797852,00003.291016,00002.412109,00001.933594,-00000.468750,-00000.117188,-00000.605469,-00000.112305,00000.053711,-00000.219727
0000000000824,00002.363281,00001.665039,00002.558594,00002.958984,00002.900391,00002.934570,00002.797852,00003.291016,00002.412109,00001.938477,-00000.468750,-00000.112305,-00000.605469,-00000.112305,00000.053711,-00000.214844
0000000000825,00002.368164,00001.669922,00002.558594,00002.963867,00002.905273,00002.939453,00002.802734,00003.291016,00002.416992,00001.943359,-00000.473633,-00000.117188,-00000.600586,-00000.107422,00000.048828,-00000.214844
0000000000826,00002.368164,00001.665039,00002.563477,00002.973633,00002.900391,00002.939453,00002.792969,00003.300781,00002.412109,00001.962891,-00000.473633,-00000.117188,-00000.600586,-00000.112305,00000.048828,-00000.214844
0000000000827,00002.363281,00001.669922,00002.558594,00002.978516,00002.900391,00002.939453,00002.797852,00003.291016,00002.416992,00001.962891,-00000.473633,-00000.112305,-00000.600586,-00000.107422,00000.048828,-00000.209961
0000000000828,00002.368164,00001.665039,00002.543945,00002.983398,00002.900391,00002.944336,00002.792969,00003.291016,00002.412109,00001.958008,-00000.473633,-00000.117188,-00000.605469,-00000.112305,00000.053711,-00000.209961
0000000000829,00002.373047,00001.665039,00002.548828,00002.973633,00002.905273,00002.944336,00002.797852,00003.300781,00002.402344,00001.958008,-00000.473633,-00000.112305,-00000.605469,-00000.107422,00000.058594,-00000.209961
0000000000830,00002.358398,00001.655273,00002.548828,00002.968750,00002.900391,00002.939453,00002.792969,00003.291016,00002.397461,00001.953125,-00000.468750,-00000.117188,-00000.600586,-00000.107422,00000.063477,-00000.209961
0000000000831,00002.358398,00001.655273,00002.548828,00002.968750,00002.900391,00002.939453,00002.792969,00003.291016,00002.397461,00001.953125,-00000.468750,-00000.112305,-00000.595703,-00000.107422,00000.063477,-00000.209961
0000000000832,00002.353516,00001.655273,00002.548828,00002.963867,00002.905273,00002.934570,00002.797852,00003.291016,00002.402344,00001.953125,-00000.468750,-00000.112305,-00000.600586,-00000.107422,00000.058594,-00000.209961
0000000000833,00002.353516,00001.655273,00002.548828,00002.968750,00002.905273,00002.939453,00002.797852,00003.295898,00002.397461,00001.953125,-00000.468750,-00000.112305,-00000.600586,-00000.107422,00000.063477,-00000.209961
0000000000834,00002.353516,00001.650391,00002.548828,00002.963867,00002.900391,00002.939453,00002.792969,00003.295898,00002.402344,00001.953125,-00000.468750,-00000.112305,-00000.600586,-00000.107422,00000.068359,-00000.209961
0000000000835,00002.348633,00001.655273,00002.543945,00002.958984,00002.900391,00002.934570,00002.792969,00003.286133,00002.392578,00001.948242,-00000.468750,-00000.112305,-00000.600586,-00000.102539,00000.068359,-00000.209961
0000000000836,00002.348633,00001.655273,00002.558594,00002.963867,00002.905273,00002.939453,00002.797852,00003.291016,00002.402344,00001.953125,-00000.463867,-00000.112305,-00000.595703,-00000.102539,00000.068359,-00000.214844
0000000000837,00002.353516,00001.655273,00002.558594,00002.968750,00002.900391,00002.939453,00002.792969,00003.291016,00002.397461,00001.962891,-00000.463867,-00000.112305,-00000.595703,-00000.102539,00000.068359,-00000.209961
0000000000838,00002.348633,00001.655273,00002.553711,00002.968750,00002.900391,00002.939453,00002.797852,00003.286133,00002.402344,00001.962891,-00000.463867,-00000.112305,-00000.590820,-00000.102539,00000.068359,-00000.209961
0000000000839,00002.353516,00001.655273,00002.558594,00002.968750,00002.900391,00002.939453,00002.792969,00003.286133,00002.397461,00001.958008,-00000.463867,-00000.107422,-00000.595703,-00000.102539,00000.073242,-00000.209961
0000000000840,00002.368164,00001.655273,00002.548828,00002.963867,00002.900391,00002.944336,00002.792969,00003.291016,00002.397461,00001.958008,-00000.463867,-00000.112305,-00000.590820,-00000.097656,00000.078125,-00000.209961
0000000000841,00002.368164,00001.660156,00002.548828,00002.963867,00002.900391,00002.934570,00002.797852,00003.291016,00002.402344,00001.953125,-00000.463867,-00000.112305,-00000.590820,-00000.102539,00000.083008,-00000.209961
0000000000842,00002.368164,00001.660156,00002.543945,00002.968750,00002.900391,00002.939453,00002.797852,00003.286133,00002.407227,00001.943359,-00000.463867,-00000.112305,-00000.590820,-00000.097656,00000.083008,-00000.205078
0000000000843,00002.368164,00001.660156,00002.548828,00002.963867,00002.900391,00002.939453,00002.792969,00003.291016,00002.407227,00001.943359,-00000.463867,-00000.112305,-00000.595703,-00000.102539,00000.083008,-00000.205078
0000000000844,00002.363281,00001.665039,00002.543945,00002.968750,00002.900391,00002.939453,00002.797852,00003.291016,00002.416992,00001.943359,-00000.468750,-00000.112305,-00000.595703,-00000.097656,00000.083008,-00000.200195
0000000000845,00002.368164,00001.665039,00002.543945,00002.963867,00002.905273,00002.939453,00002.797852,00003.291016,00002.416992,00001.938477,-00000.463867,-00000.112305,-00000.590820,-00000.097656,00000.083008,-00000.200195
0000000000846,00002.363281,00001.665039,00002.539063,00002.958984,00002.900391,00002.934570,00002.792969,00003.291016,00002.416992,00001.938477,-00000.463867,-00000.112305,-00000.585938,-00000.092773,00000.087891,-00000.200195
0000000000847,00002.368164,00001.665039,00002.539063,00002.973633,00002.900391,00002.934570,00002.797852,00003.291016,00002.421875,00001.938477,-00000.463867,-00000.107422,-00000.585938,-00000.092773,00000.087891,-00000.200195
0000000000848,00002.368164,00001.665039,00002.539063,00002.973633,00002.900391,00002.939453,00002.797852,00003.291016,00002.416992,00001.933594,-00000.463867,-00000.112305,-00000.590820,-00000.097656,00000.087891,-00000.200195
0000000000849,00002.373047,00001.665039,00002.539063,00002.968750,00002.905273,00002.939453,00002.797852,00003.295898,00002.421875,00001.938477,-00000.468750,-00000.112305,-00000.595703,-00000.097656,00000.083008,-00000.200195
0000000000850,00002.373047,00001.665039,00002.539063,00002.968750,00002.905273,00002.934570,00002.797852,00003.291016,00002.421875,00001.938477,-00000.468750,-00000.112305,-00000.590820,-00000.102539,00000.083008,-00000.200195
0000000000851,00002.373047,00001.665039,00002.539063,00002.973633,00002.900391,00002.944336,00002.792969,00003.295898,00002.421875,00001.943359,-00000.468750,-00000.112305,-00000.590820,-00000.097656,00000.078125,-00000.195313
0000000000852,00002.368164,00001.665039,00002.548828,00002.968750,00002.905273,00002.939453,00002.797852,00003.295898,00002.416992,00001.948242,-00000.468750,-00000.117188,-00000.590820,-00000.097656,00000.083008,-00000.200195
0000000000853,00002.368164,00001.660156,00002.543945,00002.968750,00002.895508,00002.944336,00002.792969,00003.295898,00002.421875,00001.943359,-00000.468750,-00000.112305,-00000.595703,-00000.097656,00000.083008,-00000.200195
0000000000854,00002.368164,00001.665039,00002.548828,00002.968750,00002.905273,00002.939453,00002.797852,00003.295898,00002.421875,00001.948242,-00000.468750,-00000.112305,-00000.590820,-00000.097656,00000.087891,-00000.200195
0000000000855,00002.373047,00001.665039,00002.548828,00002.968750,00002.905273,00002.939453,00002.797852,00003.300781,00002.421875,00001.962891,-00000.468750,-00000.112305,-00000.590820,-00000.097656,00000.083008,-00000.195313
0000000000856,00002.363281,00001.665039,00002.543945,00002.973633,00002.900391,00002.934570,00002.797852,00003.291016,00002.421875,00001.958008,-00000.468750,-00000.112305,-00000.595703,-00000.102539,00000.073242,-00000.190430
0000000000857,00002.368164,00001.660156,00002.548828,00002.963867,00002.900391,00002.939453,00002.792969,00003.291016,00002.416992,00001.962891,-00000.468750,-00000.112305,-00000.585938,-00000.097656,00000.078125,-00000.200195
0000000000858,00002.368164,00001.660156,00002.543945,00002.968750,00002.895508,00002.944336,00002.792969,00003.291016,00002.416992,00001.953125,-00000.468750,-00000.112305,-00000.590820,-00000.097656,00000.083008,-00000.205078
0000000000859,00002.363281,00001.665039,00002.543945,00002.973633,00002.900391,00002.939453,00002.797852,00003.291016,00002.421875,00001.943359,-00000.468750,-00000.112305,-00000.585938,-00000.097656,00000.087891,-00000.205078
0000000000860,00002.368164,00001.665039,00002.548828,00002.968750,00002.905273,00002.939453,00002.797852,00003.295898,00002.421875,00001.948242,-00000.468750,-00000.112305,-00000.590820,-00000.097656,00000.083008,-00000.195313
0000000000861,00002.373047,00001.660156,00002.548828,00002.973633,00002.900391,00002.944336,00002.797852,00003.300781,00002.421875,00001.962891,-00000.463867,-00000.107422,-00000.590820,-00000.097656,00000.078125,-00000.190430
0000000000862,00002.368164,00001.660156,00002.543945,00002.978516,00002.895508,00002.944336,00002.792969,00003.291016,00002.421875,00001.953125,-00000.468750,-00000.112305,-00000.595703,-00000.097656,00000.073242,-00000.190430
0000000000863,00002.373047,00001.660156,00002.548828,00002.978516,00002.900391,00002.944336,00002.792969,00003.295898,00002.421875,00001.943359,-00000.468750,-00000.112305,-00000.590820,-00000.097656,00000.087891,-00000.200195
0000000000864,00002.373047,00001.665039,00002.548828,00002.978516,00002.900391,00002.944336,00002.792969,00003.300781,00002.426758,00001.943359,-00000.473633,-00000.112305,-00000.595703,-00000.097656,00000.087891,-00000.205078
0000000000865,00002.373047,00001.665039,00002.548828,00002.978516,00002.900391,00002.944336,00002.792969,00003.295898,00002.421875,00001.938477,-00000.468750,-00000.112305,-00000.590820,-00000.097656,00000.087891,-00000.205078
0000000000866,00002.368164,00001.665039,00002.543945,00002.983398,00002.900391,00002.944336,00002.797852,00003.295898,00002.426758,00001.938477,-00000.463867,-00000.107422,-00000.585938,-00000.097656,00000.087891,-00000.200195
0000000000867,00002.368164,00001.665039,00002.548828,00002.983398,00002.905273,00002.939453,00002.802734,00003.295898,00002.426758,00001.943359,-00000.463867,-00000.107422,-00000.590820,-00000.097656,00000.087891,-00000.205078
0000000000868,00002.373047,00001.669922,00002.548828,00002.983398,00002.905273,00002.939453,00002.802734,00003.291016,00002.426758,00001.943359,-00000.468750,-00000.112305,-00000.590820,-00000.097656,00000.083008,-00000.200195
0000000000869,00002.368164,00001.669922,00002.543945,00002.983398,00002.905273,00002.944336,00002.797852,00003.291016,00002.426758,00001.938477,-00000.468750,-00000.112305,-00000.595703,-00000.102539,00000.078125,-00000.200195
0000000000870,00002.368164,00001.660156,00002.548828,00002.978516,00002.905273,00002.939453,00002.797852,00003.300781,00002.421875,00001.943359,-00000.468750,-00000.112305,-00000.590820,-00000.097656,00000.083008,-00000.200195
0000000000871,00002.363281,00001.660156,00002.543945,00002.978516,00002.900391,00002.939453,00002.797852,00003.286133,00002.416992,00001.933594,-00000.468750,-00000.107422,-00000.590820,-00000.102539,00000.083008,-00000.200195
0000000000872,00002.363281,00001.660156,00002.543945,00002.973633,00002.905273,00002.939453,00002.797852,00003.286133,00002.412109,00001.938477,-00000.468750,-00000.107422,-00000.595703,-00000.102539,00000.078125,-00000.200195
0000000000873,00002.368164,00001.655273,00002.548828,00002.963867,00002.900391,00002.944336,00002.797852,00003.295898,00002.407227,00001.943359,-00000.473633,-00000.112305,-00000.595703,-00000.102539,00000.078125,-00000.200195
0000000000874,00002.368164,00001.660156,00002.543945,00002.963867,00002.900391,00002.944336,00002.797852,00003.286133,00002.407227,00001.933594,-00000.473633,-00000.112305,-00000.595703,-00000.102539,00000.068359,-00000.200195
0000000000875,00002.358398,00001.650391,00002.543945,00002.954102,00002.895508,00002.939453,00002.792969,00003.291016,00002.402344,00001.904297,-00000.473633,-00000.112305,-00000.595703,-00000.102539,00000.073242,-00000.200195
0000000000876,00002.358398,00001.650391,00002.548828,00002.954102,00002.900391,00002.944336,00002.792969,00003.291016,00002.397461,00001.904297,-00000.473633,-00000.112305,-00000.590820,-00000.102539,00000.073242,-00000.205078
0000000000877,00002.358398,00001.645508,00002.548828,00002.954102,00002.900391,00002.939453,00002.792969,00003.295898,00002.402344,00001.899414,-00000.473633,-00000.107422,-00000.590820,-00000.102539,00000.073242,-00000.205078
0000000000878,00002.363281,00001.645508,00002.548828,00002.958984,00002.900391,00002.939453,00002.792969,00003.291016,00002.397461,00001.894531,-00000.473633,-00000.107422,-00000.595703,-00000.102539,00000.068359,-00000.205078
0000000000879,00002.368164,00001.650391,00002.548828,00002.958984,00002.900391,00002.939453,00002.797852,00003.286133,00002.402344,00001.894531,-00000.473633,-00000.112305,-00000.600586,-00000.107422,00000.058594,-00000.195313
0000000000880,00002.363281,00001.650391,00002.543945,00002.958984,00002.900391,00002.934570,00002.797852,00003.286133,00002.402344,00001.894531,-00000.473633,-00000.112305,-00000.600586,-00000.107422,00000.063477,-00000.195313
0000000000881,00002.363281,00001.650391,00002.548828,00002.958984,00002.900391,00002.934570,00002.797852,00003.286133,00002.402344,00001.894531,-00000.468750,-00000.107422,-00000.600586,-00000.107422,00000.068359,-00000.200195
0000000000882,00002.368164,00001.650391,00002.548828,00002.958984,00002.895508,00002.939453,00002.792969,00003.291016,00002.397461,00001.904297,-00000.468750,-00000.107422,-00000.595703,-00000.102539,00000.068359,-00000.200195
0000000000883,00002.363281,00001.650391,00002.543945,00002.958984,00002.900391,00002.934570,00002.797852,00003.286133,00002.402344,00001.899414,-00000.468750,-00000.112305,-00000.590820,-00000.102539,00000.063477,-00000.205078
0000000000884,00002.358398,00001.650391,00002.543945,00002.954102,00002.900391,00002.934570,00002.792969,00003.286133,00002.397461,00001.904297,-00000.468750,-00000.107422,-00000.590820,-00000.102539,00000.063477,-00000.205078
0000000000885,00002.363281,00001.650391,00002.548828,00002.958984,00002.905273,00002.939453,00002.797852,00003.291016,00002.402344,00001.933594,-00000.468750,-00000.107422,-00000.590820,-00000.102539,00000.063477,-00000.200195
0000000000886,00002.368164,00001.650391,00002.543945,00002.958984,00002.895508,00002.939453,00002.792969,00003.291016,00002.402344,00001.938477,-00000.468750,-00000.107422,-00000.590820,-00000.102539,00000.058594,-00000.200195
0000000000887,00002.368164,00001.650391,00002.543945,00002.954102,00002.895508,00002.934570,00002.788086,00003.286133,00002.397461,00001.938477,-00000.473633,-00000.112305,-00000.590820,-00000.102539,00000.063477,-00000.195313
0000000000888,00002.368164,00001.660156,00002.543945,00002.958984,00002.900391,00002.934570,00002.797852,00003.286133,00002.407227,00001.943359,-00000.473633,-00000.112305,-00000.590820,-00000.102539,00000.063477,-00000.200195
0000000000889,00002.368164,00001.655273,00002.548828,00002.958984,00002.900391,00002.939453,00002.792969,00003.291016,00002.402344,00001.953125,-00000.468750,-00000.107422,-00000.590820,-00000.097656,00000.063477,-00000.195313
0000000000890,00002.358398,00001.660156,00002.543945,00002.963867,00002.900391,00002.934570,00002.797852,00003.286133,00002.407227,00001.948242,-00000.468750,-00000.107422,-00000.590820,-00000.102539,00000.058594,-00000.195313
0000000000891,00002.358398,00001.660156,00002.543945,00002.963867,00002.900391,00002.934570,00002.797852,00003.286133,00002.407227,00001.948242,-00000.468750,-00000.112305,-00000.595703,-00000.102539,00000.058594,-00000.195313
0000000000892,00002.363281,00001.655273,00002.543945,00002.963867,00002.895508,00002.944336,00002.792969,00003.291016,00002.402344,00001.938477,-00000.468750,-00000.112305,-00000.595703,-00000.107422,00000.063477,-00000.195313
0000000000893,00002.368164,00001.655273,00002.543945,00002.968750,00002.900391,00002.939453,00002.797852,00003.291016,00002.407227,00001.938477,-00000.468750,-00000.112305,-00000.600586,-00000.102539,00000.073242,-00000.195313
0000000000894,00002.373047,00001.655273,00002.548828,00002.963867,00002.900391,00002.939453,00002.797852,00003.291016,00002.402344,00001.943359,-00000.468750,-00000.112305,-00000.595703,-00000.102539,00000.073242,-00000.200195
0000000000895,00002.363281,00001.655273,00002.543945,00002.963867,00002.900391,00002.939453,00002.792969,00003.291016,00002.402344,00001.943359,-00000.468750,-00000.112305,-00000.590820,-00000.102539,00000.068359,-00000.200195
0000000000896,00002.358398,00001.650391,00002.543945,00002.963867,00002.895508,00002.939453,00002.788086,00003.286133,00002.402344,00001.938477,-00000.468750,-00000.112305,-00000.595703,-00000.102539,00000.063477,-00000.200195
0000000000897,00002.363281,00001.655273,00002.548828,00002.958984,00002.900391,00002.939453,00002.792969,00003.291016,00002.402344,00001.938477,-00000.468750,-00000.112305,-00000.600586,-00000.102539,00000.063477,-00000.200195
0000000000898,00002.368164,00001.655273,00002.543945,00002.958984,00002.895508,00002.939453,00002.792969,00003.291016,00002.397461,00001.914063,-00000.468750,-00000.112305,-00000.600586,-00000.107422,00000.063477,-00000.200195
0000000000899,00002.368164,00001.660156,00002.543945,00002.963867,00002.905273,00002.934570,00002.797852,00003.286133,00002.402344,00001.909180,-00000.468750,-00000.112305,-00000.600586,-00000.102539,00000.068359,-00000.200195
0000000000900,00002.373047,00001.655273,00002.548828,00002.958984,00002.900391,00002.939453,00002.792969,00003.291016,00002.402344,00001.904297,-00000.468750,-00000.112305,-00000.600586,-00000.107422,00000.063477,-00000.195313
0000000000901,00002.373047,00001.655273,00002.543945,00002.968750,00002.895508,00002.944336,00002.792969,00003.291016,00002.407227,00001.899414,-00000.468750,-00000.112305,-00000.605469,-00000.107422,00000.063477,-00000.200195
0000000000902,00002.368164,00001.655273,00002.539063,00002.968750,00002.900391,00002.939453,00002.797852,00003.286133,00002.407227,00001.894531,-00000.468750,-00000.112305,-00000.605469,-00000.107422,00000.063477,-00000.195313
0000000000903,00002.368164,00001.660156,00002.543945,00002.963867,00002.905273,00002.939453,00002.802734,00003.291016,00002.412109,00001.899414,-00000.468750,-00000.112305,-00000.605469,-00000.107422,00000.063477,-00000.195313
0000000000904,00002.368164,00001.655273,00002.548828,00002.963867,00002.900391,00002.939453,00002.792969,00003.291016,00002.412109,00001.899414,-00000.468750,-00000.112305,-00000.600586,-00000.107422,00000.063477,-00000.190430
0000000000905,00002.368164,00001.655273,00002.543945,00002.963867,00002.895508,00002.939453,00002.792969,00003.291016,00002.412109,00001.894531,-00000.468750,-00000.112305,-00000.600586,-00000.107422,00000.063477,-00000.190430
0000000000906,00002.368164,00001.660156,00002.548828,00002.963867,00002.900391,00002.939453,00002.797852,00003.295898,00002.412109,00001.889648,-00000.473633,-00000.112305,-00000.600586,-00000.107422,00000.058594,-00000.195313
0000000000907,00002.368164,00001.660156,00002.543945,00002.968750,00002.900391,00002.939453,00002.792969,00003.286133,00002.416992,00001.889648,-00000.473633,-00000.112305,-00000.605469,-00000.107422,00000.053711,-00000.195313
0000000000908,00002.368164,00001.665039,00002.543945,00002.963867,00002.905273,00002.939453,00002.797852,00003.291016,00002.416992,00001.889648,-00000.468750,-00000.117188,-00000.605469,-00000.107422,00000.053711,-00000.195313
0000000000909,00002.368164,00001.660156,00002.539063,00002.968750,00002.895508,00002.939453,00002.792969,00003.286133,00002.416992,00001.894531,-00000.468750,-00000.117188,-00000.605469,-00000.107422,00000.058594,-00000.195313
0000000000910,00002.368164,00001.660156,00002.539063,00002.963867,00002.895508,00002.939453,00002.792969,00003.286133,00002.416992,00001.889648,-00000.468750,-00000.112305,-00000.600586,-00000.107422,00000.063477,-00000.200195
0000000000911,00002.368164,00001.660156,00002.539063,00002.963867,00002.900391,00002.939453,00002.792969,00003.286133,00002.416992,00001.889648,-00000.473633,-00000.117188,-00000.600586,-00000.107422,00000.063477,-00000.200195
0000000000912,00002.368164,00001.665039,00002.543945,00002.963867,00002.905273,00002.939453,00002.797852,00003.286133,00002.416992,00001.889648,-00000.473633,-00000.112305,-00000.605469,-00000.107422,00000.063477,-00000.195313
0000000000913,00002.363281,00001.660156,00002.539063,00002.954102,00002.900391,00002.934570,00002.792969,00003.286133,00002.416992,00001.884766,-00000.473633,-00000.117188,-00000.605469,-00000.107422,00000.063477,-00000.190430
0000000000914,00002.373047,00001.655273,00002.548828,00002.958984,00002.905273,00002.934570,00002.792969,00003.286133,00002.402344,00001.870117,-00000.473633,-00000.117188,-00000.605469,-00000.107422,00000.063477,-00000.195313
0000000000915,00002.363281,00001.650391,00002.543945,00002.963867,00002.895508,00002.939453,00002.792969,00003.291016,00002.402344,00001.870117,-00000.473633,-00000.117188,-00000.605469,-00000.102539,00000.063477,-00000.195313
0000000000916,00002.368164,00001.645508,00002.543945,00002.958984,00002.895508,00002.939453,00002.788086,00003.291016,00002.397461,00001.870117,-00000.473633,-00000.117188,-00000.605469,-00000.102539,00000.063477,-00000.195313
0000000000917,00002.363281,00001.645508,00002.543945,00002.958984,00002.905273,00002.939453,00002.792969,00003.291016,00002.397461,00001.865234,-00000.473633,-00000.117188,-00000.605469,-00000.102539,00000.068359,-00000.200195
0000000000918,00002.358398,00001.650391,00002.543945,00002.958984,00002.900391,00002.939453,00002.797852,00003.291016,00002.402344,00001.860352,-00000.473633,-00000.117188,-00000.600586,-00000.102539,00000.078125,-00000.200195
0000000000919,00002.353516,00001.645508,00002.539063,00002.954102,00002.900391,00002.934570,00002.792969,00003.286133,00002.392578,00001.855469,-00000.473633,-00000.117188,-00000.600586,-00000.102539,00000.078125,-00000.200195
0000000000920,00002.353516,00001.645508,00002.539063,00002.954102,00002.900391,00002.934570,00002.797852,00003.286133,00002.397461,00001.855469,-00000.468750,-00000.112305,-00000.600586,-00000.097656,00000.083008,-00000.200195
0000000000921,00002.363281,00001.645508,00002.539063,00002.963867,00002.900391,00002.944336,00002.797852,00003.291016,00002.397461,00001.855469,-00000.468750,-00000.112305,-00000.595703,-00000.102539,00000.083008,-00000.200195
0000000000922,00002.358398,00001.640625,00002.539063,00002.958984,00002.895508,00002.944336,00002.792969,00003.291016,00002.397461,00001.855469,-00000.473633,-00000.112305,-00000.595703,-00000.102539,00000.078125,-00000.195313
0000000000923,00002.358398,00001.640625,00002.543945,00002.958984,00002.900391,00002.939453,00002.792969,00003.291016,00002.392578,00001.855469,-00000.473633,-00000.112305,-00000.595703,-00000.097656,00000.078125,-00000.195313
0000000000924,00002.358398,00001.645508,00002.543945,00002.958984,00002.905273,00002.934570,00002.797852,00003.286133,00002.397461,00001.855469,-00000.473633,-00000.112305,-00000.590820,-00000.097656,00000.073242,-00000.195313
0000000000925,00002.358398,00001.645508,00002.543945,00002.963867,00002.895508,00002.939453,00002.792969,00003.286133,00002.397461,00001.875000,-00000.468750,-00000.112305,-00000.590820,-00000.097656,00000.078125,-00000.200195
0000000000926,00002.353516,00001.645508,00002.539063,00002.963867,00002.895508,00002.939453,00002.792969,00003.286133,00002.397461,00001.875000,-00000.468750,-00000.107422,-00000.590820,-00000.097656,00000.078125,-00000.200195
0000000000927,00002.358398,00001.650391,00002.543945,00002.968750,00002.905273,00002.939453,00002.802734,00003.291016,00002.402344,00001.879883,-00000.468750,-00000.112305,-00000.595703,-00000.097656,00000.078125,-00000.200195
0000000000928,00002.358398,00001.645508,00002.543945,00002.958984,00002.900391,00002.939453,00002.797852,00003.291016,00002.402344,00001.879883,-00000.473633,-00000.112305,-00000.595703,-00000.102539,00000.073242,-00000.195313
0000000000929,00002.353516,00001.645508,00002.539063,00002.963867,00002.900391,00002.939453,00002.792969,00003.291016,00002.402344,00001.879883,-00000.473633,-00000.112305,-00000.600586,-00000.097656,00000.078125,-00000.195313
0000000000930,00002.353516,00001.650391,00002.539063,00002.963867,00002.895508,00002.934570,00002.792969,00003.281250,00002.397461,00001.879883,-00000.473633,-00000.112305,-00000.595703,-00000.102539,00000.073242,-00000.200195
0000000000931,00002.358398,00001.645508,00002.548828,00002.963867,00002.900391,00002.939453,00002.792969,00003.291016,00002.397461,00001.884766,-00000.473633,-00000.112305,-00000.595703,-00000.102539,00000.068359,-00000.205078
0000000000932,00002.353516,00001.650391,00002.539063,00002.958984,00002.900391,00002.934570,00002.792969,00003.286133,00002.402344,00001.879883,-00000.473633,-00000.112305,-00000.595703,-00000.102539,00000.068359,-00000.205078
0000000000933,00002.363281,00001.645508,00002.548828,00002.963867,00002.900391,00002.939453,00002.792969,00003.291016,00002.397461,00001.879883,-00000.473633,-00000.112305,-00000.595703,-00000.102539,00000.073242,-00000.200195
0000000000934,00002.358398,00001.645508,00002.548828,00002.958984,00002.895508,00002.939453,00002.792969,00003.291016,00002.397461,00001.879883,-00000.473633,-00000.112305,-00000.595703,-00000.102539,00000.078125,-00000.200195
0000000000935,00002.358398,00001.645508,00002.543945,00002.958984,00002.900391,00002.939453,00002.792969,00003.291016,00002.397461,00001.879883,-00000.468750,-00000.112305,-00000.595703,-00000.102539,00000.078125,-00000.200195
0000000000936,00002.353516,00001.645508,00002.543945,00002.958984,00002.895508,00002.939453,00002.792969,00003.291016,00002.397461,00001.879883,-00000.468750,-00000.112305,-00000.595703,-00000.102539,00000.078125,-00000.205078
0000000000937,00002.353516,00001.645508,00002.543945,00002.963867,00002.895508,00002.939453,00002.792969,00003.286133,00002.402344,00001.865234,-00000.473633,-00000.112305,-00000.600586,-00000.102539,00000.073242,-00000.205078
0000000000938,00002.353516,00001.650391,00002.543945,00002.963867,00002.900391,00002.939453,00002.797852,00003.291016,00002.402344,00001.860352,-00000.473633,-00000.117188,-00000.605469,-00000.102539,00000.073242,-00000.205078
0000000000939,00002.358398,00001.650391,00002.548828,00002.958984,00002.905273,00002.939453,00002.797852,00003.295898,00002.397461,00001.865234,-00000.473633,-00000.112305,-00000.600586,-00000.102539,00000.073242,-00000.205078
0000000000940,00002.353516,00001.650391,00002.543945,00002.963867,00002.900391,00002.934570,00002.797852,00003.286133,00002.402344,00001.865234,-00000.468750,-00000.112305,-00000.595703,-00000.102539,00000.078125,-00000.200195
0000000000941,00002.353516,00001.650391,00002.543945,00002.968750,00002.900391,00002.939453,00002.797852,00003.286133,00002.402344,00001.875000,-00000.473633,-00000.112305,-00000.595703,-00000.102539,00000.073242,-00000.200195
0000000000942,00002.358398,00001.650391,00002.543945,00002.968750,00002.900391,00002.939453,00002.797852,00003.286133,00002.402344,00001.870117,-00000.473633,-00000.117188,-00000.595703,-00000.102539,00000.078125,-00000.200195
0000000000943,00002.358398,00001.650391,00002.543945,00002.963867,00002.900391,00002.944336,00002.797852,00003.291016,00002.402344,00001.860352,-00000.473633,-00000.117188,-00000.600586,-00000.102539,00000.078125,-00000.205078
0000000000944,00002.353516,00001.650391,00002.543945,00002.963867,00002.900391,00002.934570,00002.797852,00003.286133,00002.402344,00001.860352,-00000.473633,-00000.117188,-00000.600586,-00000.102539,00000.078125,-00000.205078
0000000000945,00002.358398,00001.645508,00002.548828,00002.963867,00002.900391,00002.944336,00002.797852,00003.295898,00002.402344,00001.860352,-00000.473633,-00000.117188,-00000.600586,-00000.102539,00000.073242,-00000.205078
0000000000946,00002.358398,00001.650391,00002.543945,00002.963867,00002.895508,00002.939453,00002.797852,00003.286133,00002.402344,00001.865234,-00000.473633,-00000.117188,-00000.600586,-00000.102539,00000.068359,-00000.205078
0000000000947,00002.373047,00001.645508,00002.548828,00002.958984,00002.895508,00002.939453,00002.792969,00003.291016,00002.397461,00001.865234,-00000.473633,-00000.117188,-00000.600586,-00000.102539,00000.073242,-00000.205078
0000000000948,00002.368164,00001.650391,00002.543945,00002.963867,00002.900391,00002.939453,00002.797852,00003.286133,00002.407227,00001.865234,-00000.473633,-00000.117188,-00000.595703,-00000.102539,00000.078125,-00000.209961
0000000000949,00002.368164,00001.650391,00002.543945,00002.958984,00002.900391,00002.934570,00002.797852,00003.291016,00002.402344,00001.865234,-00000.473633,-00000.112305,-00000.595703,-00000.102539,00000.078125,-00000.209961
0000000000950,00002.368164,00001.645508,00002.548828,00002.963867,00002.900391,00002.944336,00002.792969,00003.295898,00002.402344,00001.865234,-00000.473633,-00000.117188,-00000.600586,-00000.102539,00000.068359,-00000.205078
0000000000951,00002.368164,00001.655273,00002.543945,00002.968750,00002.900391,00002.939453,00002.797852,00003.286133,00002.407227,00001.865234,-00000.473633,-00000.117188,-00000.600586,-00000.102539,00000.068359,-00000.205078
0000000000952,00002.368164,00001.650391,00002.548828,00002.958984,00002.905273,00002.939453,00002.797852,00003.295898,00002.412109,00001.879883,-00000.473633,-00000.112305,-00000.595703,-00000.102539,00000.073242,-00000.205078
0000000000953,00002.363281,00001.650391,00002.543945,00002.963867,00002.900391,00002.939453,00002.797852,00003.291016,00002.416992,00001.875000,-00000.468750,-00000.112305,-00000.595703,-00000.102539,00000.078125,-00000.205078
0000000000954,00002.373047,00001.650391,00002.548828,00002.963867,00002.905273,00002.944336,00002.792969,00003.295898,00002.412109,00001.879883,-00000.468750,-00000.112305,-00000.595703,-00000.102539,00000.083008,-00000.205078
0000000000955,00002.373047,00001.655273,00002.548828,00002.963867,00002.905273,00002.939453,00002.802734,00003.291016,00002.416992,00001.879883,-00000.468750,-00000.112305,-00000.595703,-00000.102539,00000.087891,-00000.209961
0000000000956,00002.368164,00001.655273,00002.548828,00002.958984,00002.905273,00002.939453,00002.797852,00003.291016,00002.412109,00001.879883,-00000.468750,-00000.112305,-00000.595703,-00000.102539,00000.087891,-00000.209961
0000000000957,00002.373047,00001.660156,00002.548828,00002.968750,00002.900391,00002.944336,00002.797852,00003.291016,00002.416992,00001.875000,-00000.468750,-00000.112305,-00000.595703,-00000.102539,00000.083008,-00000.209961
0000000000958,00002.368164,00001.655273,00002.548828,00002.968750,00002.900391,00002.944336,00002.792969,00003.291016,00002.407227,00001.879883,-00000.473633,-00000.112305,-00000.595703,-00000.102539,00000.083008,-00000.209961
0000000000959,00002.353516,00001.645508,00002.539063,00002.963867,00002.895508,00002.939453,00002.792969,00003.291016,00002.402344,00001.875000,-00000.468750,-00000.112305,-00000.595703,-00000.102539,00000.078125,-00000.205078
0000000000960,00002.363281,00001.645508,00002.543945,00002.963867,00002.895508,00002.939453,00002.792969,00003.291016,00002.402344,00001.879883,-00000.468750,-00000.112305,-00000.595703,-00000.102539,00000.078125,-00000.205078
0000000000961,00002.358398,00001.645508,00002.543945,00002.963867,00002.900391,00002.934570,00002.797852,00003.286133,00002.397461,00001.875000,-00000.473633,-00000.112305,-00000.600586,-00000.102539,00000.078125,-00000.205078
0000000000962,00002.353516,00001.645508,00002.543945,00002.958984,00002.900391,00002.934570,00002.797852,00003.286133,00002.397461,00001.875000,-00000.473633,-00000.117188,-00000.600586,-00000.102539,00000.078125,-00000.205078
0000000000963,00002.348633,00001.640625,00002.539063,00002.963867,00002.895508,00002.939453,00002.792969,00003.286133,00002.397461,00001.875000,-00000.473633,-00000.117188,-00000.600586,-00000.102539,00000.078125,-00000.205078
0000000000964,00002.348633,00001.640625,00002.548828,00002.954102,00002.900391,00002.934570,00002.792969,00003.291016,00002.392578,00001.875000,-00000.473633,-00000.117188,-00000.600586,-00000.102539,00000.078125,-00000.205078
0000000000965,00002.353516,00001.640625,00002.548828,00002.963867,00002.900391,00002.939453,00002.792969,00003.295898,00002.397461,00001.879883,-00000.473633,-00000.117188,-00000.600586,-00000.102539,00000.083008,-00000.205078
0000000000966,00002.348633,00001.645508,00002.548828,00002.958984,00002.905273,00002.934570,00002.797852,00003.291016,00002.397461,00001.875000,-00000.473633,-00000.117188,-00000.600586,-00000.102539,00000.083008,-00000.205078
0000000000967,00002.348633,00001.640625,00002.543945,00002.958984,00002.900391,00002.934570,00002.792969,00003.286133,00002.397461,00001.875000,-00000.473633,-00000.112305,-00000.600586,-00000.102539,00000.078125,-00000.205078
0000000000968,00002.348633,00001.645508,00002.543945,00002.958984,00002.900391,00002.934570,00002.797852,00003.286133,00002.397461,00001.875000,-00000.478516,-00000.112305,-00000.600586,-00000.102539,00000.073242,-00000.205078
0000000000969,00002.353516,00001.640625,00002.548828,00002.968750,00002.900391,00002.944336,00002.797852,00003.291016,00002.397461,00001.875000,-00000.478516,-00000.112305,-00000.600586,-00000.102539,00000.068359,-00000.205078
0000000000970,00002.353516,00001.640625,00002.543945,00002.954102,00002.900391,00002.934570,00002.792969,00003.286133,00002.392578,00001.870117,-00000.483398,-00000.112305,-00000.595703,-00000.102539,00000.073242,-00000.209961
0000000000971,00002.348633,00001.645508,00002.539063,00002.963867,00002.900391,00002.934570,00002.797852,00003.286133,00002.397461,00001.875000,-00000.493164,-00000.112305,-00000.590820,-00000.102539,00000.068359,-00000.209961
0000000000972,00002.343750,00001.650391,00002.543945,00002.954102,00002.900391,00002.934570,00002.797852,00003.286133,00002.402344,00001.875000,-00000.512695,-00000.112305,-00000.581055,-00000.102539,00000.053711,-00000.214844
0000000000973,00002.343750,00001.655273,00002.548828,00002.949219,00002.905273,00002.939453,00002.797852,00003.291016,00002.402344,00001.879883,-00000.527344,-00000.107422,-00000.576172,-00000.102539,00000.043945,-00000.214844
0000000000974,00002.338867,00001.655273,00002.543945,00002.944336,00002.900391,00002.939453,00002.797852,00003.286133,00002.407227,00001.875000,-00000.532227,-00000.107422,-00000.576172,-00000.102539,00000.039063,-00000.209961
0000000000975,00002.338867,00001.655273,00002.543945,00002.934570,00002.900391,00002.939453,00002.792969,00003.295898,00002.397461,00001.875000,-00000.537109,-00000.107422,-00000.576172,-00000.102539,00000.039063,-00000.209961
0000000000976,00002.338867,00001.655273,00002.543945,00002.915039,00002.900391,00002.939453,00002.788086,00003.291016,00002.397461,00001.860352,-00000.566406,-00000.102539,-00000.566406,-00000.102539,00000.029297,-00000.214844
0000000000977,00002.333984,00001.655273,00002.548828,00002.910156,00002.900391,00002.939453,00002.792969,00003.291016,00002.397461,00001.865234,-00000.585938,-00000.102539,-00000.561523,-00000.097656,00000.014648,-00000.205078
0000000000978,00002.324219,00001.660156,00002.573242,00002.910156,00002.900391,00002.934570,00002.797852,00003.281250,00002.397461,00001.855469,-00000.615234,-00000.107422,-00000.556641,-00000.087891,-00000.004883,-00000.190430
0000000000979,00002.309570,00001.660156,00002.578125,00002.905273,00002.900391,00002.934570,00002.797852,00003.286133,00002.397461,00001.870117,-00000.634766,-00000.112305,-00000.556641,-00000.087891,-00000.024414,-00000.166016
0000000000980,00002.299805,00001.655273,00002.553711,00002.905273,00002.895508,00002.934570,00002.792969,00003.286133,00002.397461,00001.870117,-00000.644531,-00000.112305,-00000.556641,-00000.087891,-00000.019531,-00000.161133
0000000000981,00002.285156,00001.655273,00002.543945,00002.895508,00002.895508,00002.924805,00002.792969,00003.281250,00002.392578,00001.865234,-00000.664063,-00000.122070,-00000.556641,-00000.083008,-00000.019531,-00000.156250
0000000000982,00002.294922,00001.660156,00002.543945,00002.895508,00002.895508,00002.919922,00002.792969,00003.291016,00002.387695,00001.850586,-00000.673828,-00000.117188,-00000.556641,-00000.083008,-00000.014648,-00000.166016
0000000000983,00002.270508,00001.660156,00002.553711,00002.885742,00002.900391,00002.915039,00002.792969,00003.291016,00002.387695,00001.845703,-00000.698242,-00000.117188,-00000.551758,-00000.083008,-00000.024414,-00000.170898
0000000000984,00002.241211,00001.660156,00002.563477,00002.880859,00002.900391,00002.905273,00002.792969,00003.286133,00002.387695,00001.831055,-00000.732422,-00000.117188,-00000.546875,-00000.087891,-00000.019531,-00000.156250
0000000000985,00002.192383,00001.655273,00002.573242,00002.856445,00002.900391,00002.900391,00002.792969,00003.286133,00002.387695,00001.821289,-00000.795898,-00000.126953,-00000.551758,-00000.092773,-00000.024414,-00000.131836
0000000000986,00002.163086,00001.655273,00002.543945,00002.817383,00002.900391,00002.895508,00002.788086,00003.281250,00002.377930,00001.801758,-00000.864258,-00000.131836,-00000.556641,-00000.092773,-00000.029297,-00000.117188
0000000000987,00002.163086,00001.655273,00002.543945,00002.797852,00002.895508,00002.900391,00002.788086,00003.281250,00002.382813,00001.757813,-00000.947266,-00000.136719,-00000.566406,-00000.097656,-00000.034180,-00000.107422
0000000000988,00002.163086,00001.655273,00002.539063,00002.729492,00002.900391,00002.890625,00002.768555,00003.276367,00002.382813,00001.704102,-00001.054688,-00000.136719,-00000.566406,-00000.097656,-00000.019531,-00000.092773
0000000000989,00002.182617,00001.655273,00002.548828,00002.680664,00002.895508,00002.895508,00002.749023,00003.281250,00002.377930,00001.679688,-00001.206055,-00000.151367,-00000.571289,-00000.102539,-00000.014648,-00000.092773
0000000000990,00002.172852,00001.665039,00002.539063,00002.651367,00002.890625,00002.890625,00002.744141,00003.281250,00002.377930,00001.660156,-00001.318359,-00000.161133,-00000.590820,-00000.112305,-00000.034180,-00000.097656
0000000000991,00002.153320,00001.674805,00002.539063,00002.612305,00002.900391,00002.885742,00002.749023,00003.276367,00002.377930,00001.635742,-00001.450195,-00000.170898,-00000.595703,-00000.131836,-00000.058594,-00000.092773
0000000000992,00002.138672,00001.665039,00002.539063,00002.573242,00002.890625,00002.880859,00002.744141,00003.271484,00002.368164,00001.582031,-00001.586914,-00000.180664,-00000.605469,-00000.141602,-00000.073242,-00000.073242
0000000000993,00002.124023,00001.655273,00002.539063,00002.539063,00002.890625,00002.861328,00002.749023,00003.271484,00002.285156,00001.538086,-00001.738281,-00000.195313,-00000.615234,-00000.141602,-00000.068359,-00000.029297
0000000000994,00002.119141,00001.655273,00002.524414,00002.524414,00002.890625,00002.836914,00002.749023,00003.276367,00002.285156,00001.459961,-00001.875000,-00000.205078,-00000.615234,-00000.141602,-00000.043945,-00000.004883
0000000000995,00002.104492,00001.650391,00002.519531,00002.500000,00002.880859,00002.822266,00002.744141,00003.271484,00002.280273,00001.420898,-00002.011719,-00000.219727,-00000.625000,-00000.151367,-00000.034180,-00000.019531
0000000000996,00002.099609,00001.650391,00002.514648,00002.480469,00002.885742,00002.822266,00002.763672,00003.271484,00002.275391,00001.411133,-00002.143555,-00000.244141,-00000.639648,-00000.175781,-00000.048828,-00000.063477
0000000000997,00002.099609,00001.650391,00002.509766,00002.451172,00002.880859,00002.788086,00002.758789,00003.271484,00002.260742,00001.401367,-00002.294922,-00000.273438,-00000.654297,-00000.190430,-00000.068359,-00000.092773
0000000000998,00002.089844,00001.655273,00002.504883,00002.431641,00002.885742,00002.744141,00002.763672,00003.266602,00002.260742,00001.391602,-00002.373047,-00000.283203,-00000.644531,-00000.185547,-00000.087891,-00000.102539
0000000000999,00002.084961,00001.669922,00002.490234,00002.416992,00002.880859,00002.724609,00002.763672,00003.261719,00002.265625,00001.367188,-00002.426758,-00000.288086,-00000.629883,-00000.175781,-00000.083008,-00000.083008
0000000001000,00002.089844,00001.665039,00002.495117,00002.412109,00002.880859,00002.724609,00002.763672,00003.266602,00002.260742,00001.362305,-00002.475586,-00000.283203,-00000.605469,-00000.166016,-00000.043945,-00000.043945
0000000001001,00002.065430,00001.674805,00002.504883,00002.348633,00002.875977,00002.714844,00002.763672,00003.256836,00002.260742,00001.362305,-00002.573242,-00000.283203,-00000.595703,-00000.161133,-00000.029297,-00000.029297
0000000001002,00002.065430,00001.669922,00002.500000,00002.338867,00002.875977,00002.719727,00002.763672,00003.251953,00002.250977,00001.352539,-00002.646484,-00000.288086,-00000.590820,-00000.170898,-00000.024414,-00000.053711
0000000001003,00002.055664,00001.665039,00002.495117,00002.314453,00002.875977,00002.709961,00002.758789,00003.227539,00002.241211,00001.342773,-00002.690430,-00000.302734,-00000.590820,-00000.170898,-00000.019531,-00000.068359
0000000001004,00002.055664,00001.660156,00002.500000,00002.294922,00002.871094,00002.709961,00002.753906,00003.232422,00002.241211,00001.328125,-00002.724609,-00000.302734,-00000.585938,-00000.170898,-00000.004883,-00000.048828
0000000001005,00002.050781,00001.665039,00002.500000,00002.265625,00002.856445,00002.705078,00002.753906,00003.222656,00002.241211,00001.313477,-00002.758789,-00000.307617,-00000.581055,-00000.161133,00000.009766,-00000.024414
0000000001006,00002.050781,00001.665039,00002.480469,00002.241211,00002.846680,00002.705078,00002.749023,00003.222656,00002.241211,00001.289063,-00002.788086,-00000.322266,-00000.585938,-00000.161133,00000.024414,-00000.024414
0000000001007,00002.050781,00001.665039,00002.475586,00002.226563,00002.851563,00002.700195,00002.753906,00003.222656,00002.236328,00001.274414,-00002.812500,-00000.327148,-00000.590820,-00000.161133,00000.019531,-00000.014648
0000000001008,00002.050781,00001.660156,00002.470703,00002.216797,00002.841797,00002.695313,00002.749023,00003.217773,00002.211914,00001.269531,-00002.836914,-00000.336914,-00000.595703,-00000.170898,00000.024414,00000.004883
0000000001009,00002.041016,00001.660156,00002.475586,00002.158203,00002.846680,00002.690430,00002.744141,00003.217773,00002.207031,00001.245117,-00002.856445,-00000.341797,-00000.590820,-00000.170898,00000.039063,00000.000000
0000000001010,00002.036133,00001.660156,00002.475586,00002.138672,00002.841797,00002.690430,00002.739258,00003.208008,00002.202148,00001.245117,-00002.856445,-00000.346680,-00000.581055,-00000.166016,00000.043945,-00000.024414
0000000001011,00002.031250,00001.665039,00002.480469,00002.128906,00002.851563,00002.685547,00002.749023,00003.208008,00002.202148,00001.245117,-00002.851563,-00000.361328,-00000.576172,-00000.166016,00000.043945,-00000.034180
0000000001012,00002.026367,00001.669922,00002.475586,00002.119141,00002.846680,00002.685547,00002.749023,00003.198242,00002.202148,00001.245117,-00002.856445,-00000.375977,-00000.581055,-00000.170898,00000.034180,-00000.019531
0000000001013,00002.021484,00001.669922,00002.475586,00002.104492,00002.846680,00002.685547,00002.753906,00003.203125,00002.202148,00001.245117,-00002.856445,-00000.390625,-00000.585938,-00000.175781,00000.029297,-00000.004883
0000000001014,00002.016602,00001.669922,00002.480469,00002.094727,00002.846680,00002.680664,00002.749023,00003.198242,00002.197266,00001.245117,-00002.856445,-00000.405273,-00000.590820,-00000.175781,00000.019531,00000.000000
0000000001015,00002.016602,00001.669922,00002.475586,00002.089844,00002.846680,00002.685547,00002.753906,00003.203125,00002.202148,00001.240234,-00002.861328,-00000.405273,-00000.585938,-00000.175781,00000.024414,00000.004883
0000000001016,00002.006836,00001.665039,00002.475586,00002.075195,00002.832031,00002.685547,00002.744141,00003.198242,00002.192383,00001.235352,-00002.890625,-00000.415039,-00000.581055,-00000.175781,00000.034180,00000.009766
0000000001017,00001.904297,00001.665039,00002.480469,00002.065430,00002.841797,00002.680664,00002.749023,00003.203125,00002.182617,00001.230469,-00002.915039,-00000.424805,-00000.581055,-00000.180664,00000.048828,-00000.004883
0000000001018,00001.899414,00001.660156,00002.470703,00002.055664,00002.836914,00002.680664,00002.744141,00003.198242,00002.182617,00001.230469,-00002.924805,-00000.434570,-00000.595703,-00000.185547,00000.043945,-00000.034180
0000000001019,00001.899414,00001.660156,00002.475586,00002.050781,00002.841797,00002.680664,00002.744141,00003.203125,00002.177734,00001.201172,-00002.924805,-00000.434570,-00000.600586,-00000.190430,00000.029297,-00000.058594
0000000001020,00001.889648,00001.660156,00002.475586,00002.050781,00002.836914,00002.680664,00002.739258,00003.198242,00002.187500,00001.176758,-00002.934570,-00000.449219,-00000.576172,-00000.185547,00000.034180,-00000.053711
0000000001021,00001.860352,00001.660156,00002.475586,00002.036133,00002.841797,00002.680664,00002.734375,00003.198242,00002.182617,00001.152344,-00002.939453,-00000.473633,-00000.541992,-00000.170898,00000.043945,-00000.039063
0000000001022,00001.845703,00001.660156,00002.470703,00002.006836,00002.836914,00002.680664,00002.729492,00003.193359,00002.182617,00001.137695,-00002.968750,-00000.502930,-00000.537109,-00000.175781,00000.039063,-00000.053711
0000000001023,00001.835938,00001.660156,00002.465820,00001.982422,00002.832031,00002.675781,00002.729492,00003.188477,00002.177734,00001.132813,-00002.993164,-00000.532227,-00000.546875,-00000.180664,00000.043945,-00000.078125
0000000001024,00001.826172,00001.655273,00002.470703,00001.943359,00002.836914,00002.670898,00002.724609,00003.188477,00002.167969,00001.147461,-00003.002930,-00000.571289,-00000.541992,-00000.185547,00000.053711,-00000.107422
0000000001025,00001.821289,00001.660156,00002.475586,00001.928711,00002.832031,00002.661133,00002.724609,00003.193359,00002.167969,00001.137695,-00002.998047,-00000.585938,-00000.527344,-00000.185547,00000.053711,-00000.112305
0000000001026,00001.791992,00001.660156,00002.465820,00001.923828,00002.817383,00002.651367,00002.724609,00003.183594,00002.163086,00001.132813,-00002.993164,-00000.590820,-00000.517578,-00000.185547,00000.058594,-00000.097656
0000000001027,00001.791992,00001.655273,00002.470703,00001.918945,00002.817383,00002.651367,00002.729492,00003.183594,00002.163086,00001.132813,-00002.988281,-00000.595703,-00000.517578,-00000.190430,00000.058594,-00000.083008
0000000001028,00001.791992,00001.650391,00002.470703,00001.918945,00002.812500,00002.656250,00002.719727,00003.183594,00002.158203,00001.132813,-00002.983398,-00000.571289,-00000.522461,-00000.190430,00000.058594,-00000.083008
0000000001029,00001.787109,00001.650391,00002.465820,00001.923828,00002.817383,00002.651367,00002.724609,00003.178711,00002.163086,00001.137695,-00002.968750,-00000.546875,-00000.532227,-00000.195313,00000.043945,-00000.083008
0000000001030,00001.787109,00001.650391,00002.470703,00001.918945,00002.817383,00002.651367,00002.719727,00003.183594,00002.153320,00001.147461,-00002.954102,-00000.532227,-00000.537109,-00000.200195,00000.039063,-00000.087891
0000000001031,00001.787109,00001.650391,00002.470703,00001.923828,00002.817383,00002.656250,00002.719727,00003.183594,00002.153320,00001.152344,-00002.929688,-00000.517578,-00000.537109,-00000.195313,00000.039063,-00000.102539
0000000001032,00001.782227,00001.650391,00002.470703,00001.923828,00002.817383,00002.651367,00002.724609,00003.183594,00002.153320,00001.157227,-00002.919922,-00000.512695,-00000.537109,-00000.200195,00000.039063,-00000.107422
0000000001033,00001.777344,00001.650391,00002.465820,00001.923828,00002.802734,00002.656250,00002.719727,00003.178711,00002.153320,00001.157227,-00002.900391,-00000.541992,-00000.532227,-00000.200195,00000.034180,-00000.092773
0000000001034,00001.772461,00001.645508,00002.465820,00001.914063,00002.807617,00002.651367,00002.724609,00003.173828,00002.153320,00001.157227,-00002.885742,-00000.561523,-00000.537109,-00000.205078,00000.039063,-00000.087891
0000000001035,00001.767578,00001.645508,00002.465820,00001.914063,00002.807617,00002.651367,00002.724609,00003.168945,00002.148438,00001.152344,-00002.880859,-00000.571289,-00000.541992,-00000.209961,00000.029297,-00000.092773
0000000001036,00001.767578,00001.640625,00002.465820,00001.918945,00002.802734,00002.656250,00002.719727,00003.173828,00002.148438,00001.157227,-00002.861328,-00000.566406,-00000.551758,-00000.224609,00000.014648,-00000.092773
0000000001037,00001.762695,00001.645508,00002.470703,00001.923828,00002.807617,00002.656250,00002.724609,00003.168945,00002.148438,00001.157227,-00002.856445,-00000.541992,-00000.551758,-00000.224609,00000.009766,-00000.083008
0000000001038,00001.762695,00001.640625,00002.470703,00001.918945,00002.812500,00002.651367,00002.724609,00003.173828,00002.148438,00001.157227,-00002.871094,-00000.517578,-00000.556641,-00000.224609,00000.019531,-00000.073242
0000000001039,00001.752930,00001.640625,00002.470703,00001.914063,00002.807617,00002.646484,00002.724609,00003.173828,00002.143555,00001.152344,-00002.885742,-00000.522461,-00000.556641,-00000.224609,00000.019531,-00000.053711
0000000001040,00001.748047,00001.640625,00002.470703,00001.914063,00002.807617,00002.641602,00002.724609,00003.168945,00002.143555,00001.152344,-00002.900391,-00000.532227,-00000.551758,-00000.229492,00000.019531,-00000.063477
0000000001041,00001.752930,00001.640625,00002.465820,00001.914063,00002.797852,00002.646484,00002.719727,00003.164063,00002.143555,00001.152344,-00002.885742,-00000.537109,-00000.561523,-00000.229492,00000.024414,-00000.092773
0000000001042,00001.748047,00001.645508,00002.470703,00001.918945,00002.802734,00002.641602,00002.719727,00003.164063,00002.143555,00001.157227,-00002.880859,-00000.532227,-00000.566406,-00000.229492,00000.024414,-00000.102539
0000000001043,00001.748047,00001.640625,00002.470703,00001.918945,00002.802734,00002.641602,00002.719727,00003.164063,00002.138672,00001.152344,-00002.880859,-00000.522461,-00000.566406,-00000.224609,00000.029297,-00000.097656
0000000001044,00001.743164,00001.640625,00002.465820,00001.914063,00002.802734,00002.641602,00002.719727,00003.159180,00002.143555,00001.152344,-00002.880859,-00000.522461,-00000.561523,-00000.224609,00000.029297,-00000.092773
0000000001045,00001.738281,00001.640625,00002.470703,00001.914063,00002.797852,00002.641602,00002.719727,00003.164063,00002.138672,00001.147461,-00002.890625,-00000.517578,-00000.551758,-00000.224609,00000.034180,-00000.097656
0000000001046,00001.733398,00001.635742,00002.470703,00001.909180,00002.802734,00002.641602,00002.719727,00003.159180,00002.138672,00001.142578,-00002.919922,-00000.522461,-00000.551758,-00000.234375,00000.048828,-00000.087891
0000000001047,00001.733398,00001.630859,00002.465820,00001.904297,00002.797852,00002.646484,00002.714844,00003.164063,00002.133789,00001.142578,-00002.934570,-00000.512695,-00000.551758,-00000.239258,00000.053711,-00000.087891
0000000001048,00001.728516,00001.630859,00002.465820,00001.899414,00002.797852,00002.641602,00002.719727,00003.159180,00002.128906,00001.137695,-00002.939453,-00000.507813,-00000.561523,-00000.239258,00000.063477,-00000.102539
0000000001049,00001.728516,00001.625977,00002.465820,00001.889648,00002.792969,00002.636719,00002.709961,00003.154297,00002.124023,00001.127930,-00002.934570,-00000.502930,-00000.581055,-00000.239258,00000.073242,-00000.136719
0000000001050,00001.713867,00001.625977,00002.470703,00001.879883,00002.797852,00002.636719,00002.709961,00003.159180,00002.119141,00001.127930,-00002.939453,-00000.502930,-00000.581055,-00000.239258,00000.073242,-00000.151367
0000000001051,00001.708984,00001.621094,00002.465820,00001.875000,00002.792969,00002.636719,00002.714844,00003.154297,00002.119141,00001.118164,-00002.954102,-00000.502930,-00000.571289,-00000.239258,00000.073242,-00000.146484
0000000001052,00001.699219,00001.616211,00002.465820,00001.860352,00002.792969,00002.626953,00002.714844,00003.149414,00002.109375,00001.113281,-00002.978516,-00000.512695,-00000.571289,-00000.239258,00000.078125,-00000.156250
0000000001053,00001.704102,00001.616211,00002.465820,00001.860352,00002.788086,00002.631836,00002.709961,00003.149414,00002.104492,00001.113281,-00002.983398,-00000.522461,-00000.571289,-00000.239258,00000.078125,-00000.175781
0000000001054,00001.704102,00001.616211,00002.465820,00001.855469,00002.788086,00002.631836,00002.705078,00003.149414,00002.104492,00001.103516,-00002.978516,-00000.522461,-00000.561523,-00000.244141,00000.073242,-00000.175781
0000000001055,00001.699219,00001.611328,00002.470703,00001.840820,00002.792969,00002.626953,00002.709961,00003.144531,00002.099609,00001.069336,-00002.983398,-00000.532227,-00000.561523,-00000.244141,00000.078125,-00000.166016
0000000001056,00001.694336,00001.611328,00002.465820,00001.835938,00002.788086,00002.626953,00002.705078,00003.144531,00002.099609,00001.069336,-00002.998047,-00000.541992,-00000.571289,-00000.249023,00000.083008,-00000.146484
0000000001057,00001.694336,00001.611328,00002.470703,00001.787109,00002.792969,00002.622070,00002.705078,00003.139648,00002.094727,00001.059570,-00003.041992,-00000.581055,-00000.581055,-00000.249023,00000.078125,-00000.107422
0000000001058,00001.694336,00001.611328,00002.465820,00001.782227,00002.788086,00002.622070,00002.705078,00003.139648,00002.094727,00001.059570,-00003.066406,-00000.595703,-00000.581055,-00000.249023,00000.083008,-00000.131836
0000000001059,00001.689453,00001.616211,00002.465820,00001.772461,00002.792969,00002.617188,00002.709961,00003.134766,00002.094727,00001.054688,-00003.076172,-00000.605469,-00000.595703,-00000.258789,00000.087891,-00000.170898
0000000001060,00001.694336,00001.611328,00002.465820,00001.762695,00002.788086,00002.622070,00002.705078,00003.134766,00002.094727,00001.054688,-00003.076172,-00000.620117,-00000.615234,-00000.273438,00000.078125,-00000.190430
0000000001061,00001.694336,00001.611328,00002.465820,00001.757813,00002.788086,00002.617188,00002.705078,00003.134766,00002.089844,00001.044922,-00003.090820,-00000.634766,-00000.620117,-00000.278320,00000.068359,-00000.180664
0000000001062,00001.689453,00001.611328,00002.465820,00001.752930,00002.792969,00002.617188,00002.709961,00003.134766,00002.099609,00001.040039,-00003.115234,-00000.659180,-00000.600586,-00000.273438,00000.073242,-00000.166016
0000000001063,00001.689453,00001.606445,00002.465820,00001.748047,00002.792969,00002.612305,00002.705078,00003.134766,00002.094727,00001.030273,-00003.154297,-00000.673828,-00000.576172,-00000.268555,00000.083008,-00000.151367
0000000001064,00001.689453,00001.606445,00002.465820,00001.733398,00002.788086,00002.607422,00002.700195,00003.134766,00002.094727,00001.025391,-00003.193359,-00000.693359,-00000.561523,-00000.273438,00000.068359,-00000.156250
0000000001065,00001.684570,00001.606445,00002.470703,00001.718750,00002.792969,00002.607422,00002.705078,00003.139648,00002.094727,00001.025391,-00003.222656,-00000.722656,-00000.571289,-00000.283203,00000.053711,-00000.161133
0000000001066,00001.669922,00001.601563,00002.465820,00001.640625,00002.797852,00002.597656,00002.700195,00003.129883,00002.094727,00000.996094,-00003.261719,-00000.756836,-00000.590820,-00000.288086,00000.029297,-00000.117188
0000000001067,00001.660156,00001.596680,00002.465820,00001.586914,00002.792969,00002.583008,00002.700195,00003.125000,00002.089844,00000.981445,-00003.320313,-00000.820313,-00000.595703,-00000.292969,00000.024414,-00000.078125
0000000001068,00001.655273,00001.596680,00002.465820,00001.547852,00002.792969,00002.578125,00002.700195,00003.120117,00002.089844,00000.976563,-00003.383789,-00000.869141,-00000.585938,-00000.288086,00000.024414,-00000.058594
0000000001069,00001.655273,00001.591797,00002.465820,00001.459961,00002.797852,00002.578125,00002.700195,00003.125000,00002.089844,00000.971680,-00003.432617,-00000.903320,-00000.590820,-00000.292969,00000.029297,-00000.048828
0000000001070,00001.655273,00001.591797,00002.465820,00001.435547,00002.792969,00002.578125,00002.690430,00003.120117,00002.080078,00000.971680,-00003.442383,-00000.927734,-00000.610352,-00000.302734,00000.019531,-00000.048828
0000000001071,00001.655273,00001.586914,00002.465820,00001.420898,00002.797852,00002.578125,00002.690430,00003.120117,00002.080078,00000.966797,-00003.417969,-00000.927734,-00000.625000,-00000.312500,00000.014648,-00000.053711
0000000001072,00001.650391,00001.591797,00002.460938,00001.416016,00002.792969,00002.573242,00002.695313,00003.110352,00002.080078,00000.966797,-00003.403320,-00000.932617,-00000.620117,-00000.307617,00000.014648,-00000.073242
0000000001073,00001.645508,00001.586914,00002.460938,00001.401367,00002.792969,00002.578125,00002.690430,00003.110352,00002.080078,00000.961914,-00003.427734,-00000.942383,-00000.620117,-00000.307617,00000.019531,-00000.063477
0000000001074,00001.640625,00001.586914,00002.460938,00001.357422,00002.792969,00002.573242,00002.690430,00003.110352,00002.075195,00000.952148,-00003.457031,-00000.957031,-00000.605469,-00000.292969,00000.043945,-00000.078125
0000000001075,00001.640625,00001.586914,00002.456055,00001.333008,00002.788086,00002.573242,00002.680664,00003.105469,00002.065430,00000.947266,-00003.461914,-00000.966797,-00000.615234,-00000.292969,00000.039063,-00000.078125
0000000001076,00001.640625,00001.586914,00002.460938,00001.318359,00002.792969,00002.578125,00002.685547,00003.110352,00002.060547,00000.952148,-00003.442383,-00000.976563,-00000.634766,-00000.307617,00000.019531,-00000.053711
0000000001077,00001.640625,00001.582031,00002.456055,00001.318359,00002.788086,00002.587891,00002.675781,00003.110352,00002.055664,00000.952148,-00003.427734,-00000.981445,-00000.659180,-00000.312500,00000.000000,-00000.034180
0000000001078,00001.645508,00001.582031,00002.465820,00001.313477,00002.792969,00002.587891,00002.680664,00003.110352,00002.055664,00000.957031,-00003.422852,-00000.986328,-00000.659180,-00000.312500,00000.000000,-00000.019531
0000000001079,00001.640625,00001.577148,00002.460938,00001.303711,00002.788086,00002.587891,00002.675781,00003.110352,00002.055664,00000.952148,-00003.427734,-00000.981445,-00000.639648,-00000.302734,00000.004883,-00000.009766
0000000001080,00001.640625,00001.582031,00002.456055,00001.298828,00002.802734,00002.592773,00002.685547,00003.115234,00002.060547,00000.952148,-00003.422852,-00000.986328,-00000.654297,-00000.307617,00000.014648,-00000.024414
0000000001081,00001.640625,00001.577148,00002.451172,00001.289063,00002.792969,00002.587891,00002.680664,00003.105469,00002.055664,00000.947266,-00003.398438,-00000.986328,-00000.673828,-00000.312500,00000.019531,-00000.034180
0000000001082,00001.645508,00001.577148,00002.451172,00001.289063,00002.788086,00002.587891,00002.675781,00003.105469,00002.050781,00000.952148,-00003.369141,-00000.981445,-00000.708008,-00000.327148,00000.019531,-00000.043945
0000000001083,00001.650391,00001.577148,00002.456055,00001.289063,00002.797852,00002.602539,00002.685547,00003.110352,00002.055664,00000.961914,-00003.320313,-00000.971680,-00000.732422,-00000.332031,00000.009766,-00000.053711
0000000001084,00001.655273,00001.577148,00002.456055,00001.289063,00002.797852,00002.602539,00002.680664,00003.110352,00002.055664,00000.961914,-00003.300781,-00000.961914,-00000.732422,-00000.327148,00000.004883,-00000.043945
0000000001085,00001.655273,00001.577148,00002.451172,00001.293945,00002.797852,00002.607422,00002.680664,00003.110352,00002.065430,00000.961914,-00003.286133,-00000.966797,-00000.737305,-00000.322266,00000.009766,-00000.034180
0000000001086,00001.660156,00001.577148,00002.451172,00001.289063,00002.797852,00002.617188,00002.680664,00003.110352,00002.065430,00000.961914,-00003.271484,-00000.966797,-00000.747070,-00000.332031,00000.009766,-00000.034180
0000000001087,00001.660156,00001.577148,00002.470703,00001.289063,00002.802734,00002.617188,00002.680664,00003.110352,00002.060547,00000.966797,-00003.242188,-00000.961914,-00000.766602,-00000.346680,00000.000000,-00000.024414
0000000001088,00001.660156,00001.572266,00002.465820,00001.284180,00002.797852,00002.622070,00002.675781,00003.110352,00002.065430,00000.966797,-00003.227539,-00000.947266,-00000.781250,-00000.366211,-00000.009766,-00000.014648
0000000001089,00001.660156,00001.572266,00002.465820,00001.279297,00002.797852,00002.626953,00002.675781,00003.110352,00002.060547,00000.961914,-00003.227539,-00000.947266,-00000.766602,-00000.356445,00000.000000,-00000.009766
0000000001090,00001.640625,00001.572266,00002.465820,00001.269531,00002.797852,00002.622070,00002.675781,00003.110352,00002.050781,00000.961914,-00003.208008,-00000.922852,-00000.751953,-00000.356445,00000.000000,-00000.034180
0000000001091,00001.645508,00001.562500,00002.470703,00001.269531,00002.792969,00002.622070,00002.670898,00003.110352,00002.050781,00000.961914,-00003.183594,-00000.917969,-00000.766602,-00000.356445,-00000.004883,-00000.039063
0000000001092,00001.640625,00001.567383,00002.465820,00001.274414,00002.797852,00002.617188,00002.675781,00003.110352,00002.050781,00000.961914,-00003.139648,-00000.913086,-00000.742188,-00000.346680,00000.004883,-00000.014648
0000000001093,00001.640625,00001.562500,00002.465820,00001.279297,00002.792969,00002.617188,00002.675781,00003.110352,00002.045898,00000.961914,-00003.125000,-00000.903320,-00000.722656,-00000.341797,00000.000000,-00000.014648
0000000001094,00001.635742,00001.562500,00002.470703,00001.284180,00002.792969,00002.612305,00002.675781,00003.105469,00002.050781,00000.961914,-00003.081055,-00000.874023,-00000.722656,-00000.351563,-00000.014648,-00000.029297
0000000001095,00001.630859,00001.557617,00002.475586,00001.284180,00002.792969,00002.617188,00002.675781,00003.110352,00002.050781,00000.961914,-00003.066406,-00000.864258,-00000.742188,-00000.366211,-00000.024414,-00000.024414
0000000001096,00001.630859,00001.562500,00002.485352,00001.323242,00002.792969,00002.607422,00002.685547,00003.110352,00002.060547,00000.961914,-00003.022461,-00000.712891,-00000.673828,-00000.317383,-00000.004883,-00000.004883
0000000001097,00001.635742,00001.562500,00002.490234,00001.342773,00002.792969,00002.612305,00002.690430,00003.115234,00002.080078,00000.961914,-00003.012695,-00000.678711,-00000.673828,-00000.307617,-00000.004883,-00000.024414
0000000001098,00001.635742,00001.562500,00002.495117,00001.342773,00002.792969,00002.612305,00002.695313,00003.115234,00002.075195,00000.961914,-00003.007813,-00000.664063,-00000.683594,-00000.317383,-00000.009766,-00000.024414
0000000001099,00001.635742,00001.562500,00002.490234,00001.342773,00002.792969,00002.617188,00002.695313,00003.110352,00002.080078,00000.971680,-00002.978516,-00000.629883,-00000.668945,-00000.312500,00000.004883,-00000.014648
0000000001100,00001.640625,00001.557617,00002.495117,00001.381836,00002.792969,00002.622070,00002.690430,00003.120117,00002.080078,00000.981445,-00002.949219,-00000.625000,-00000.644531,-00000.297852,00000.009766,-00000.024414
0000000001101,00001.640625,00001.557617,00002.495117,00001.391602,00002.792969,00002.617188,00002.690430,00003.115234,00002.080078,00000.981445,-00002.944336,-00000.615234,-00000.649414,-00000.302734,00000.004883,-00000.019531
0000000001102,00001.635742,00001.557617,00002.480469,00001.391602,00002.783203,00002.617188,00002.690430,00003.110352,00002.080078,00000.976563,-00002.944336,-00000.561523,-00000.678711,-00000.307617,00000.000000,-00000.009766
0000000001103,00001.640625,00001.557617,00002.485352,00001.391602,00002.788086,00002.622070,00002.690430,00003.115234,00002.080078,00000.986328,-00002.939453,-00000.502930,-00000.649414,-00000.292969,00000.004883,-00000.004883
0000000001104,00001.640625,00001.562500,00002.495117,00001.401367,00002.788086,00002.626953,00002.695313,00003.120117,00002.084961,00000.986328,-00002.915039,-00000.493164,-00000.649414,-00000.292969,00000.000000,-00000.009766
0000000001105,00001.635742,00001.562500,00002.485352,00001.484375,00002.788086,00002.622070,00002.695313,00003.110352,00002.080078,00000.981445,-00002.890625,-00000.493164,-00000.634766,-00000.292969,-00000.009766,-00000.004883
0000000001106,00001.630859,00001.557617,00002.495117,00001.547852,00002.783203,00002.622070,00002.695313,00003.120117,00002.080078,00000.981445,-00002.875977,-00000.449219,-00000.581055,-00000.268555,00000.014648,-00000.004883
0000000001107,00001.630859,00001.557617,00002.495117,00001.582031,00002.778320,00002.626953,00002.695313,00003.120117,00002.075195,00000.981445,-00002.866211,-00000.439453,-00000.576172,-00000.263672,00000.014648,-00000.014648
0000000001108,00001.630859,00001.562500,00002.490234,00001.650391,00002.778320,00002.622070,00002.695313,00003.115234,00002.080078,00000.981445,-00002.827148,-00000.415039,-00000.576172,-00000.268555,-00000.004883,-00000.024414
0000000001109,00001.630859,00001.557617,00002.490234,00001.645508,00002.773438,00002.622070,00002.690430,00003.115234,00002.080078,00000.986328,-00002.827148,-00000.395508,-00000.556641,-00000.268555,00000.004883,-00000.014648
0000000001110,00001.625977,00001.562500,00002.490234,00001.660156,00002.778320,00002.617188,00002.695313,00003.115234,00002.080078,00000.981445,-00002.797852,-00000.410156,-00000.576172,-00000.258789,00000.009766,-00000.014648
0000000001111,00001.625977,00001.557617,00002.490234,00001.684570,00002.773438,00002.622070,00002.695313,00003.120117,00002.075195,00000.986328,-00002.753906,-00000.410156,-00000.605469,-00000.268555,00000.004883,-00000.019531
0000000001112,00001.625977,00001.557617,00002.495117,00001.679688,00002.734375,00002.622070,00002.695313,00003.120117,00002.075195,00000.986328,-00002.753906,-00000.390625,-00000.590820,-00000.258789,00000.004883,-00000.009766
0000000001113,00001.625977,00001.557617,00002.495117,00001.679688,00002.705078,00002.617188,00002.695313,00003.120117,00002.070313,00000.981445,-00002.749023,-00000.356445,-00000.595703,-00000.258789,-00000.004883,-00000.004883
0000000001114,00001.625977,00001.557617,00002.495117,00001.674805,00002.724609,00002.617188,00002.695313,00003.120117,00002.075195,00000.986328,-00002.739258,-00000.361328,-00000.620117,-00000.268555,-00000.004883,-00000.009766
0000000001115,00001.625977,00001.557617,00002.500000,00001.660156,00002.729492,00002.617188,00002.700195,00003.120117,00002.075195,00000.981445,-00002.729492,-00000.366211,-00000.625000,-00000.273438,-00000.014648,-00000.014648
0000000001116,00001.625977,00001.557617,00002.500000,00001.650391,00002.729492,00002.622070,00002.700195,00003.115234,00002.075195,00000.986328,-00002.734375,-00000.380859,-00000.595703,-00000.268555,-00000.004883,-00000.009766
0000000001117,00001.630859,00001.557617,00002.500000,00001.606445,00002.724609,00002.626953,00002.695313,00003.125000,00002.075195,00000.981445,-00002.734375,-00000.395508,-00000.605469,-00000.273438,-00000.004883,-00000.009766
0000000001118,00001.630859,00001.557617,00002.500000,00001.567383,00002.739258,00002.622070,00002.695313,00003.120117,00002.075195,00000.986328,-00002.744141,-00000.400391,-00000.620117,-00000.288086,-00000.014648,-00000.024414
0000000001119,00001.625977,00001.557617,00002.495117,00001.567383,00002.749023,00002.622070,00002.700195,00003.120117,00002.080078,00000.981445,-00002.778320,-00000.375977,-00000.581055,-00000.273438,-00000.004883,-00000.024414
0000000001120,00001.630859,00001.557617,00002.495117,00001.567383,00002.763672,00002.617188,00002.700195,00003.120117,00002.080078,00000.981445,-00002.788086,-00000.371094,-00000.576172,-00000.273438,-00000.004883,-00000.034180
0000000001121,00001.630859,00001.557617,00002.490234,00001.557617,00002.753906,00002.622070,00002.705078,00003.115234,00002.080078,00000.981445,-00002.827148,-00000.332031,-00000.595703,-00000.288086,-00000.009766,-00000.043945
0000000001122,00001.625977,00001.557617,00002.495117,00001.542969,00002.744141,00002.617188,00002.705078,00003.120117,00002.075195,00000.976563,-00002.841797,-00000.317383,-00000.605469,-00000.288086,-00000.004883,-00000.024414
0000000001123,00001.630859,00001.562500,00002.490234,00001.547852,00002.734375,00002.622070,00002.700195,00003.115234,00002.080078,00000.971680,-00002.822266,-00000.312500,-00000.605469,-00000.283203,00000.009766,-00000.029297
0000000001124,00001.625977,00001.557617,00002.495117,00001.552734,00002.739258,00002.617188,00002.700195,00003.120117,00002.080078,00000.976563,-00002.812500,-00000.317383,-00000.610352,-00000.283203,00000.004883,-00000.034180
0000000001125,00001.625977,00001.557617,00002.490234,00001.557617,00002.729492,00002.622070,00002.700195,00003.120117,00002.080078,00000.976563,-00002.802734,-00000.312500,-00000.610352,-00000.288086,00000.000000,-00000.024414
0000000001126,00001.630859,00001.557617,00002.495117,00001.557617,00002.724609,00002.622070,00002.695313,00003.120117,00002.075195,00000.976563,-00002.812500,-00000.292969,-00000.581055,-00000.278320,00000.014648,-00000.024414
0000000001127,00001.625977,00001.552734,00002.495117,00001.567383,00002.714844,00002.622070,00002.700195,00003.120117,00002.075195,00000.971680,-00002.788086,-00000.268555,-00000.581055,-00000.273438,00000.019531,-00000.034180
0000000001128,00001.621094,00001.552734,00002.495117,00001.586914,00002.695313,00002.622070,00002.700195,00003.115234,00002.075195,00000.966797,-00002.773438,-00000.239258,-00000.581055,-00000.268555,00000.019531,-00000.029297
0000000001129,00001.616211,00001.552734,00002.495117,00001.606445,00002.695313,00002.617188,00002.700195,00003.120117,00002.070313,00000.966797,-00002.768555,-00000.239258,-00000.595703,-00000.273438,00000.014648,-00000.014648
0000000001130,00001.621094,00001.552734,00002.495117,00001.630859,00002.690430,00002.622070,00002.695313,00003.120117,00002.070313,00000.966797,-00002.758789,-00000.253906,-00000.610352,-00000.278320,00000.009766,-00000.019531
0000000001131,00001.630859,00001.557617,00002.495117,00001.635742,00002.695313,00002.622070,00002.700195,00003.120117,00002.075195,00000.976563,-00002.709961,-00000.263672,-00000.668945,-00000.292969,-00000.004883,-00000.039063
0000000001132,00001.625977,00001.557617,00002.504883,00001.635742,00002.695313,00002.622070,00002.705078,00003.125000,00002.075195,00000.976563,-00002.695313,-00000.249023,-00000.644531,-00000.283203,00000.009766,-00000.034180
0000000001133,00001.625977,00001.557617,00002.500000,00001.640625,00002.700195,00002.622070,00002.709961,00003.125000,00002.080078,00000.976563,-00002.685547,-00000.249023,-00000.644531,-00000.283203,00000.004883,-00000.029297
0000000001134,00001.625977,00001.562500,00002.500000,00001.645508,00002.700195,00002.622070,00002.709961,00003.125000,00002.080078,00000.976563,-00002.656250,-00000.258789,-00000.673828,-00000.297852,-00000.014648,-00000.034180
0000000001135,00001.630859,00001.562500,00002.504883,00001.650391,00002.709961,00002.626953,00002.705078,00003.125000,00002.080078,00000.981445,-00002.636719,-00000.258789,-00000.654297,-00000.292969,00000.000000,-00000.024414
0000000001136,00001.630859,00001.557617,00002.504883,00001.660156,00002.709961,00002.626953,00002.705078,00003.129883,00002.075195,00000.986328,-00002.626953,-00000.268555,-00000.659180,-00000.297852,00000.004883,-00000.029297
0000000001137,00001.630859,00001.557617,00002.504883,00001.655273,00002.709961,00002.622070,00002.705078,00003.129883,00002.075195,00000.981445,-00002.587891,-00000.273438,-00000.678711,-00000.307617,-00000.009766,-00000.029297
0000000001138,00001.630859,00001.557617,00002.509766,00001.655273,00002.700195,00002.622070,00002.705078,00003.129883,00002.075195,00000.986328,-00002.578125,-00000.268555,-00000.659180,-00000.302734,-00000.004883,-00000.024414
0000000001139,00001.630859,00001.557617,00002.504883,00001.650391,00002.695313,00002.622070,00002.709961,00003.125000,00002.084961,00000.986328,-00002.587891,-00000.292969,-00000.659180,-00000.297852,00000.004883,-00000.024414
0000000001140,00001.630859,00001.552734,00002.500000,00001.660156,00002.690430,00002.626953,00002.700195,00003.129883,00002.080078,00000.986328,-00002.558594,-00000.297852,-00000.678711,-00000.307617,-00000.009766,-00000.034180
0000000001141,00001.630859,00001.557617,00002.509766,00001.669922,00002.700195,00002.622070,00002.705078,00003.129883,00002.080078,00000.986328,-00002.548828,-00000.302734,-00000.678711,-00000.312500,-00000.009766,-00000.034180
0000000001142,00001.630859,00001.557617,00002.504883,00001.669922,00002.700195,00002.617188,00002.709961,00003.125000,00002.080078,00000.981445,-00002.563477,-00000.292969,-00000.678711,-00000.307617,00000.009766,-00000.034180
0000000001143,00001.645508,00001.552734,00002.504883,00001.669922,00002.714844,00002.622070,00002.705078,00003.129883,00002.075195,00000.991211,-00002.563477,-00000.297852,-00000.678711,-00000.312500,00000.004883,-00000.039063
0000000001144,00001.650391,00001.557617,00002.500000,00001.679688,00002.709961,00002.626953,00002.705078,00003.125000,00002.080078,00000.991211,-00002.558594,-00000.302734,-00000.673828,-00000.317383,-00000.004883,-00000.043945
0000000001145,00001.650391,00001.562500,00002.504883,00001.684570,00002.724609,00002.622070,00002.714844,00003.125000,00002.084961,00000.991211,-00002.583008,-00000.322266,-00000.664063,-00000.307617,00000.009766,-00000.039063
0000000001146,00001.660156,00001.562500,00002.500000,00001.684570,00002.724609,00002.622070,00002.709961,00003.125000,00002.080078,00000.991211,-00002.597656,-00000.322266,-00000.654297,-00000.302734,00000.019531,-00000.034180
0000000001147,00001.655273,00001.557617,00002.500000,00001.694336,00002.724609,00002.622070,00002.709961,00003.125000,00002.080078,00000.991211,-00002.597656,-00000.302734,-00000.644531,-00000.302734,00000.019531,-00000.043945
0000000001148,00001.655273,00001.562500,00002.495117,00001.699219,00002.719727,00002.622070,00002.705078,00003.120117,00002.084961,00000.991211,-00002.617188,-00000.292969,-00000.634766,-00000.307617,00000.014648,-00000.048828
0000000001149,00001.660156,00001.562500,00002.495117,00001.704102,00002.724609,00002.622070,00002.705078,00003.120117,00002.084961,00000.991211,-00002.626953,-00000.292969,-00000.644531,-00000.302734,00000.019531,-00000.048828
0000000001150,00001.660156,00001.562500,00002.500000,00001.713867,00002.729492,00002.622070,00002.709961,00003.125000,00002.084961,00000.991211,-00002.631836,-00000.278320,-00000.634766,-00000.307617,00000.024414,-00000.058594
0000000001151,00001.655273,00001.562500,00002.500000,00001.708984,00002.724609,00002.626953,00002.705078,00003.125000,00002.084961,00000.991211,-00002.622070,-00000.283203,-00000.649414,-00000.317383,00000.014648,-00000.053711
0000000001152,00001.655273,00001.562500,00002.495117,00001.708984,00002.729492,00002.622070,00002.709961,00003.125000,00002.084961,00000.991211,-00002.612305,-00000.292969,-00000.654297,-00000.312500,00000.014648,-00000.058594
0000000001153,00001.655273,00001.562500,00002.495117,00001.713867,00002.724609,00002.626953,00002.709961,00003.120117,00002.084961,00000.991211,-00002.622070,-00000.307617,-00000.644531,-00000.307617,00000.024414,-00000.063477
0000000001154,00001.660156,00001.557617,00002.495117,00001.708984,00002.729492,00002.626953,00002.705078,00003.125000,00002.080078,00000.996094,-00002.631836,-00000.317383,-00000.673828,-00000.332031,00000.014648,-00000.053711
0000000001155,00001.665039,00001.562500,00002.500000,00001.708984,00002.729492,00002.631836,00002.705078,00003.125000,00002.080078,00000.996094,-00002.622070,-00000.312500,-00000.678711,-00000.332031,00000.009766,-00000.048828
0000000001156,00001.665039,00001.562500,00002.495117,00001.718750,00002.739258,00002.636719,00002.705078,00003.125000,00002.084961,00001.005859,-00002.597656,-00000.302734,-00000.668945,-00000.322266,00000.019531,-00000.048828
0000000001157,00001.665039,00001.562500,00002.495117,00001.723633,00002.753906,00002.636719,00002.705078,00003.129883,00002.084961,00001.005859,-00002.597656,-00000.307617,-00000.678711,-00000.327148,00000.019531,-00000.053711
0000000001158,00001.665039,00001.562500,00002.495117,00001.718750,00002.778320,00002.631836,00002.709961,00003.120117,00002.089844,00001.005859,-00002.602539,-00000.317383,-00000.673828,-00000.327148,00000.014648,-00000.053711
0000000001159,00001.669922,00001.562500,00002.495117,00001.718750,00002.773438,00002.646484,00002.705078,00003.125000,00002.084961,00001.015625,-00002.592773,-00000.327148,-00000.659180,-00000.322266,00000.009766,-00000.048828
0000000001160,00001.665039,00001.562500,00002.495117,00001.723633,00002.783203,00002.646484,00002.709961,00003.125000,00002.089844,00001.020508,-00002.583008,-00000.332031,-00000.659180,-00000.322266,00000.009766,-00000.048828
0000000001161,00001.669922,00001.562500,00002.495117,00001.723633,00002.778320,00002.651367,00002.700195,00003.125000,00002.089844,00001.020508,-00002.592773,-00000.336914,-00000.644531,-00000.327148,00000.009766,-00000.053711
0000000001162,00001.669922,00001.562500,00002.500000,00001.723633,00002.778320,00002.646484,00002.700195,00003.129883,00002.084961,00001.025391,-00002.602539,-00000.302734,-00000.625000,-00000.317383,00000.019531,-00000.053711
0000000001163,00001.674805,00001.567383,00002.495117,00001.733398,00002.783203,00002.656250,00002.709961,00003.129883,00002.094727,00001.020508,-00002.597656,-00000.288086,-00000.625000,-00000.312500,00000.024414,-00000.053711
0000000001164,00001.669922,00001.567383,00002.490234,00001.733398,00002.773438,00002.646484,00002.709961,00003.120117,00002.089844,00001.020508,-00002.607422,-00000.297852,-00000.639648,-00000.322266,00000.014648,-00000.058594
0000000001165,00001.665039,00001.562500,00002.495117,00001.718750,00002.778320,00002.636719,00002.709961,00003.120117,00002.084961,00001.010742,-00002.631836,-00000.312500,-00000.644531,-00000.332031,00000.019531,-00000.048828
0000000001166,00001.665039,00001.562500,00002.495117,00001.723633,00002.778320,00002.641602,00002.709961,00003.120117,00002.089844,00001.010742,-00002.622070,-00000.317383,-00000.639648,-00000.327148,00000.024414,-00000.063477
0000000001167,00001.665039,00001.557617,00002.490234,00001.723633,00002.753906,00002.636719,00002.700195,00003.120117,00002.075195,00001.015625,-00002.573242,-00000.322266,-00000.668945,-00000.322266,00000.019531,-00000.073242
0000000001168,00001.665039,00001.562500,00002.495117,00001.728516,00002.753906,00002.641602,00002.705078,00003.125000,00002.084961,00001.015625,-00002.583008,-00000.317383,-00000.678711,-00000.322266,00000.019531,-00000.068359
0000000001169,00001.669922,00001.562500,00002.490234,00001.728516,00002.753906,00002.641602,00002.705078,00003.125000,00002.084961,00001.015625,-00002.612305,-00000.332031,-00000.673828,-00000.327148,00000.024414,-00000.073242
0000000001170,00001.669922,00001.562500,00002.495117,00001.728516,00002.778320,00002.656250,00002.705078,00003.125000,00002.084961,00001.035156,-00002.568359,-00000.327148,-00000.683594,-00000.332031,00000.019531,-00000.068359
0000000001171,00001.669922,00001.557617,00002.495117,00001.762695,00002.773438,00002.661133,00002.705078,00003.125000,00002.084961,00001.035156,-00002.558594,-00000.327148,-00000.688477,-00000.322266,00000.014648,-00000.058594
0000000001172,00001.669922,00001.562500,00002.490234,00001.762695,00002.778320,00002.656250,00002.705078,00003.120117,00002.084961,00001.035156,-00002.563477,-00000.332031,-00000.688477,-00000.322266,00000.019531,-00000.068359
0000000001173,00001.674805,00001.562500,00002.490234,00001.772461,00002.778320,00002.661133,00002.709961,00003.120117,00002.089844,00001.040039,-00002.553711,-00000.327148,-00000.693359,-00000.322266,00000.019531,-00000.083008
0000000001174,00001.674805,00001.572266,00002.495117,00001.782227,00002.783203,00002.661133,00002.709961,00003.120117,00002.089844,00001.044922,-00002.534180,-00000.322266,-00000.698242,-00000.332031,00000.009766,-00000.078125
0000000001175,00001.674805,00001.572266,00002.490234,00001.782227,00002.783203,00002.666016,00002.705078,00003.125000,00002.089844,00001.044922,-00002.563477,-00000.327148,-00000.693359,-00000.332031,00000.014648,-00000.063477
0000000001176,00001.674805,00001.572266,00002.495117,00001.782227,00002.792969,00002.661133,00002.714844,00003.125000,00002.094727,00001.044922,-00002.563477,-00000.336914,-00000.698242,-00000.327148,00000.019531,-00000.063477
0000000001177,00001.679688,00001.572266,00002.490234,00001.782227,00002.788086,00002.661133,00002.709961,00003.120117,00002.089844,00001.044922,-00002.558594,-00000.332031,-00000.703125,-00000.332031,00000.014648,-00000.087891
0000000001178,00001.679688,00001.567383,00002.495117,00001.777344,00002.783203,00002.661133,00002.705078,00003.129883,00002.089844,00001.044922,-00002.573242,-00000.336914,-00000.678711,-00000.327148,00000.019531,-00000.087891
0000000001179,00001.679688,00001.572266,00002.495117,00001.777344,00002.792969,00002.661133,00002.709961,00003.125000,00002.089844,00001.044922,-00002.583008,-00000.341797,-00000.678711,-00000.332031,00000.019531,-00000.087891
0000000001180,00001.679688,00001.572266,00002.495117,00001.777344,00002.792969,00002.656250,00002.714844,00003.125000,00002.089844,00001.044922,-00002.568359,-00000.336914,-00000.693359,-00000.341797,00000.009766,-00000.092773
0000000001181,00001.674805,00001.577148,00002.495117,00001.777344,00002.792969,00002.651367,00002.709961,00003.125000,00002.089844,00001.040039,-00002.573242,-00000.327148,-00000.688477,-00000.341797,00000.004883,-00000.083008
0000000001182,00001.679688,00001.572266,00002.495117,00001.777344,00002.783203,00002.661133,00002.705078,00003.129883,00002.084961,00001.044922,-00002.587891,-00000.322266,-00000.673828,-00000.332031,00000.019531,-00000.073242
0000000001183,00001.679688,00001.577148,00002.490234,00001.777344,00002.792969,00002.656250,00002.709961,00003.120117,00002.089844,00001.074219,-00002.573242,-00000.327148,-00000.683594,-00000.336914,00000.019531,-00000.083008
0000000001184,00001.679688,00001.577148,00002.490234,00001.787109,00002.788086,00002.666016,00002.709961,00003.120117,00002.094727,00001.093750,-00002.563477,-00000.317383,-00000.683594,-00000.332031,00000.014648,-00000.063477
0000000001185,00001.689453,00001.577148,00002.495117,00001.791992,00002.792969,00002.666016,00002.709961,00003.125000,00002.099609,00001.093750,-00002.558594,-00000.302734,-00000.668945,-00000.332031,00000.024414,-00000.063477
0000000001186,00001.689453,00001.577148,00002.490234,00001.806641,00002.792969,00002.666016,00002.709961,00003.120117,00002.104492,00001.098633,-00002.534180,-00000.292969,-00000.649414,-00000.346680,00000.014648,-00000.092773
0000000001187,00001.694336,00001.577148,00002.495117,00001.811523,00002.792969,00002.675781,00002.705078,00003.125000,00002.104492,00001.103516,-00002.514648,-00000.288086,-00000.634766,-00000.346680,00000.009766,-00000.092773
0000000001188,00001.694336,00001.577148,00002.500000,00001.821289,00002.792969,00002.670898,00002.709961,00003.129883,00002.104492,00001.103516,-00002.490234,-00000.302734,-00000.629883,-00000.341797,00000.014648,-00000.083008
0000000001189,00001.689453,00001.577148,00002.490234,00001.821289,00002.792969,00002.670898,00002.709961,00003.120117,00002.104492,00001.103516,-00002.480469,-00000.317383,-00000.625000,-00000.322266,00000.019531,-00000.092773
0000000001190,00001.694336,00001.577148,00002.495117,00001.835938,00002.792969,00002.670898,00002.714844,00003.120117,00002.104492,00001.132813,-00002.436523,-00000.322266,-00000.639648,-00000.327148,00000.009766,-00000.087891
0000000001191,00001.694336,00001.577148,00002.500000,00001.850586,00002.792969,00002.675781,00002.709961,00003.129883,00002.104492,00001.132813,-00002.412109,-00000.332031,-00000.654297,-00000.332031,00000.000000,-00000.083008
0000000001192,00001.689453,00001.577148,00002.500000,00001.850586,00002.797852,00002.670898,00002.714844,00003.125000,00002.109375,00001.127930,-00002.407227,-00000.336914,-00000.659180,-00000.327148,00000.004883,-00000.063477
0000000001193,00001.694336,00001.577148,00002.500000,00001.850586,00002.797852,00002.675781,00002.705078,00003.129883,00002.104492,00001.132813,-00002.407227,-00000.332031,-00000.654297,-00000.317383,00000.014648,-00000.063477
0000000001194,00001.684570,00001.577148,00002.500000,00001.850586,00002.802734,00002.670898,00002.714844,00003.125000,00002.109375,00001.132813,-00002.373047,-00000.327148,-00000.678711,-00000.327148,00000.004883,-00000.063477
0000000001195,00001.684570,00001.572266,00002.504883,00001.845703,00002.792969,00002.670898,00002.709961,00003.129883,00002.094727,00001.132813,-00002.338867,-00000.341797,-00000.708008,-00000.327148,00000.000000,-00000.068359
0000000001196,00001.679688,00001.572266,00002.500000,00001.840820,00002.797852,00002.666016,00002.709961,00003.125000,00002.099609,00001.137695,-00002.319336,-00000.332031,-00000.698242,-00000.322266,00000.004883,-00000.068359
0000000001197,00001.679688,00001.577148,00002.500000,00001.845703,00002.797852,00002.670898,00002.714844,00003.120117,00002.099609,00001.137695,-00002.309570,-00000.327148,-00000.693359,-00000.322266,00000.000000,-00000.078125
0000000001198,00001.679688,00001.572266,00002.500000,00001.845703,00002.797852,00002.666016,00002.709961,00003.125000,00002.099609,00001.142578,-00002.294922,-00000.332031,-00000.693359,-00000.332031,-00000.009766,-00000.083008
0000000001199,00001.684570,00001.572266,00002.509766,00001.855469,00002.797852,00002.675781,00002.709961,00003.129883,00002.094727,00001.147461,-00002.260742,-00000.341797,-00000.722656,-00000.336914,-00000.024414,-00000.068359
0000000001200,00001.679688,00001.572266,00002.504883,00001.855469,00002.797852,00002.666016,00002.714844,00003.125000,00002.094727,00001.147461,-00002.255859,-00000.346680,-00000.708008,-00000.322266,00000.000000,-00000.063477
0000000001201,00001.679688,00001.577148,00002.504883,00001.875000,00002.797852,00002.666016,00002.714844,00003.125000,00002.104492,00001.152344,-00002.241211,-00000.341797,-00000.703125,-00000.332031,-00000.004883,-00000.063477
0000000001202,00001.684570,00001.577148,00002.509766,00001.875000,00002.802734,00002.670898,00002.714844,00003.125000,00002.104492,00001.152344,-00002.250977,-00000.341797,-00000.698242,-00000.332031,00000.000000,-00000.058594
0000000001203,00001.689453,00001.572266,00002.509766,00001.865234,00002.797852,00002.675781,00002.709961,00003.129883,00002.104492,00001.152344,-00002.294922,-00000.327148,-00000.683594,-00000.327148,00000.004883,-00000.058594
0000000001204,00001.694336,00001.572266,00002.509766,00001.865234,00002.802734,00002.675781,00002.714844,00003.129883,00002.104492,00001.147461,-00002.294922,-00000.327148,-00000.678711,-00000.322266,00000.009766,-00000.068359
0000000001205,00001.694336,00001.577148,00002.504883,00001.870117,00002.797852,00002.675781,00002.709961,00003.129883,00002.104492,00001.147461,-00002.309570,-00000.346680,-00000.688477,-00000.332031,-00000.004883,-00000.073242
0000000001206,00001.689453,00001.572266,00002.504883,00001.860352,00002.802734,00002.670898,00002.709961,00003.129883,00002.104492,00001.147461,-00002.373047,-00000.307617,-00000.639648,-00000.317383,00000.000000,-00000.058594
0000000001207,00001.689453,00001.577148,00002.504883,00001.855469,00002.797852,00002.675781,00002.714844,00003.129883,00002.104492,00001.142578,-00002.397461,-00000.273438,-00000.634766,-00000.312500,00000.004883,-00000.078125
0000000001208,00001.689453,00001.582031,00002.500000,00001.860352,00002.792969,00002.680664,00002.714844,00003.125000,00002.104492,00001.142578,-00002.402344,-00000.273438,-00000.654297,-00000.322266,00000.000000,-00000.078125
0000000001209,00001.684570,00001.582031,00002.500000,00001.860352,00002.797852,00002.675781,00002.714844,00003.120117,00002.104492,00001.142578,-00002.412109,-00000.263672,-00000.654297,-00000.317383,-00000.004883,-00000.068359
0000000001210,00001.689453,00001.582031,00002.500000,00001.860352,00002.797852,00002.680664,00002.709961,00003.129883,00002.104492,00001.142578,-00002.426758,-00000.263672,-00000.649414,-00000.312500,00000.000000,-00000.063477
0000000001211,00001.689453,00001.586914,00002.500000,00001.860352,00002.797852,00002.675781,00002.714844,00003.125000,00002.104492,00001.142578,-00002.431641,-00000.258789,-00000.644531,-00000.307617,00000.004883,-00000.073242
0000000001212,00001.694336,00001.582031,00002.500000,00001.855469,00002.802734,00002.675781,00002.709961,00003.129883,00002.104492,00001.147461,-00002.441406,-00000.253906,-00000.639648,-00000.312500,00000.009766,-00000.087891
0000000001213,00001.694336,00001.586914,00002.495117,00001.860352,00002.797852,00002.680664,00002.714844,00003.125000,00002.104492,00001.147461,-00002.451172,-00000.258789,-00000.659180,-00000.322266,00000.000000,-00000.083008
0000000001214,00001.694336,00001.586914,00002.500000,00001.855469,00002.802734,00002.680664,00002.714844,00003.129883,00002.104492,00001.142578,-00002.465820,-00000.268555,-00000.664063,-00000.327148,-00000.004883,-00000.068359
0000000001215,00001.694336,00001.586914,00002.500000,00001.855469,00002.797852,00002.685547,00002.709961,00003.129883,00002.104492,00001.142578,-00002.480469,-00000.283203,-00000.659180,-00000.322266,00000.004883,-00000.058594
0000000001216,00001.699219,00001.586914,00002.500000,00001.850586,00002.797852,00002.685547,00002.709961,00003.129883,00002.104492,00001.142578,-00002.475586,-00000.292969,-00000.644531,-00000.312500,00000.014648,-00000.063477
0000000001217,00001.694336,00001.596680,00002.495117,00001.850586,00002.802734,00002.685547,00002.714844,00003.120117,00002.109375,00001.142578,-00002.475586,-00000.302734,-00000.639648,-00000.307617,00000.014648,-00000.073242
0000000001218,00001.694336,00001.591797,00002.495117,00001.845703,00002.797852,00002.685547,00002.714844,00003.125000,00002.104492,00001.142578,-00002.465820,-00000.307617,-00000.654297,-00000.312500,00000.004883,-00000.078125
0000000001219,00001.699219,00001.591797,00002.500000,00001.850586,00002.802734,00002.685547,00002.714844,00003.125000,00002.109375,00001.147461,-00002.451172,-00000.307617,-00000.668945,-00000.322266,00000.000000,-00000.068359
0000000001220,00001.704102,00001.591797,00002.495117,00001.850586,00002.797852,00002.695313,00002.709961,00003.125000,00002.109375,00001.147461,-00002.431641,-00000.297852,-00000.664063,-00000.322266,00000.000000,-00000.068359
0000000001221,00001.704102,00001.591797,00002.500000,00001.850586,00002.802734,00002.685547,00002.709961,00003.125000,00002.104492,00001.142578,-00002.421875,-00000.288086,-00000.659180,-00000.317383,00000.009766,-00000.087891
0000000001222,00001.704102,00001.591797,00002.495117,00001.855469,00002.802734,00002.685547,00002.714844,00003.125000,00002.114258,00001.137695,-00002.426758,-00000.288086,-00000.654297,-00000.317383,00000.019531,-00000.112305
0000000001223,00001.704102,00001.596680,00002.500000,00001.850586,00002.802734,00002.685547,00002.714844,00003.125000,00002.109375,00001.142578,-00002.412109,-00000.283203,-00000.644531,-00000.312500,00000.019531,-00000.126953
