0000000001081,00002.119141,00001.621094,00002.475586,00002.465820,00002.822266,00002.934570,00002.714844,00003.139648,00002.250977,00001.899414,-00000.351563,-00000.107422,-00000.541992,-00000.004883,00000.009766,-00000.087891
0000000001082,00002.119141,00001.621094,00002.470703,00002.470703,00002.817383,00002.944336,00002.709961,00003.139648,00002.250977,00001.894531,-00000.351563,-00000.102539,-00000.546875,-00000.004883,00000.014648,-00000.087891
0000000001083,00002.119141,00001.621094,00002.475586,00002.470703,00002.822266,00002.944336,00002.709961,00003.144531,00002.255859,00001.899414,-00000.351563,-00000.107422,-00000.546875,-00000.004883,00000.019531,-00000.087891
0000000001084,00002.124023,00001.621094,00002.475586,00002.470703,00002.822266,00002.944336,00002.709961,00003.144531,00002.250977,00001.904297,-00000.351563,-00000.102539,-00000.546875,00000.000000,00000.019531,-00000.092773
0000000001085,00002.119141,00001.621094,00002.470703,00002.470703,00002.822266,00002.939453,00002.709961,00003.139648,00002.255859,00001.894531,-00000.356445,-00000.102539,-00000.546875,-00000.004883,00000.019531,-00000.092773
0000000001086,00002.119141,00001.625977,00002.475586,00002.465820,00002.827148,00002.939453,00002.714844,00003.144531,00002.250977,00001.899414,-00000.351563,-00000.107422,-00000.546875,-00000.004883,00000.019531,-00000.092773
0000000001087,00002.124023,00001.621094,00002.470703,00002.470703,00002.822266,00002.939453,00002.705078,00003.144531,00002.250977,00001.904297,-00000.351563,-00000.107422,-00000.546875,-00000.004883,00000.014648,-00000.092773
0000000001088,00002.119141,00001.621094,00002.465820,00002.470703,00002.822266,00002.939453,00002.709961,00003.139648,00002.255859,00001.904297,-00000.351563,-00000.107422,-00000.546875,00000.000000,00000.019531,-00000.087891
0000000001089,00002.119141,00001.625977,00002.470703,00002.475586,00002.827148,00002.939453,00002.714844,00003.139648,00002.255859,00001.904297,-00000.351563,-00000.107422,-00000.546875,-00000.004883,00000.014648,-00000.087891
0000000001090,00002.119141,00001.625977,00002.470703,00002.480469,00002.827148,00002.934570,00002.714844,00003.139648,00002.255859,00001.899414,-00000.351563,-00000.107422,-00000.551758,-00000.004883,00000.019531,-00000.092773
0000000001091,00002.119141,00001.625977,00002.470703,00002.475586,00002.832031,00002.939453,00002.714844,00003.139648,00002.255859,00001.899414,-00000.356445,-00000.107422,-00000.546875,-00000.004883,00000.019531,-00000.092773
0000000001092,00002.124023,00001.625977,00002.475586,00002.475586,00002.832031,00002.939453,00002.714844,00003.144531,00002.255859,00001.904297,-00000.351563,-00000.107422,-00000.546875,00000.000000,00000.019531,-00000.092773
0000000001093,00002.119141,00001.625977,00002.470703,00002.475586,00002.827148,00002.939453,00002.709961,00003.139648,00002.255859,00001.894531,-00000.351563,-00000.107422,-00000.546875,00000.000000,00000.024414,-00000.092773
0000000001094,00002.119141,00001.621094,00002.475586,00002.475586,00002.822266,00002.939453,00002.705078,00003.144531,00002.250977,00001.879883,-00000.351563,-00000.107422,-00000.541992,00000.000000,00000.024414,-00000.092773
0000000001095,00002.119141,00001.621094,00002.470703,00002.470703,00002.817383,00002.939453,00002.705078,00003.139648,00002.246094,00001.870117,-00000.351563,-00000.102539,-00000.546875,00000.000000,00000.024414,-00000.092773
0000000001096,00002.119141,00001.621094,00002.475586,00002.475586,00002.822266,00002.944336,00002.709961,00003.144531,00002.250977,00001.865234,-00000.351563,-00000.107422,-00000.546875,-00000.004883,00000.019531,-00000.092773
0000000001097,00002.114258,00001.621094,00002.470703,00002.475586,00002.822266,00002.934570,00002.709961,00003.139648,00002.250977,00001.860352,-00000.351563,-00000.107422,-00000.551758,-00000.004883,00000.019531,-00000.092773
0000000001098,00002.114258,00001.616211,00002.470703,00002.470703,00002.812500,00002.939453,00002.705078,00003.139648,00002.250977,00001.860352,-00000.351563,-00000.107422,-00000.551758,-00000.009766,00000.019531,-00000.092773
0000000001099,00002.114258,00001.621094,00002.470703,00002.460938,00002.817383,00002.939453,00002.705078,00003.134766,00002.250977,00001.845703,-00000.351563,-00000.107422,-00000.551758,-00000.009766,00000.024414,-00000.087891
0000000001100,00002.109375,00001.621094,00002.470703,00002.465820,00002.817383,00002.939453,00002.709961,00003.139648,00002.250977,00001.845703,-00000.351563,-00000.107422,-00000.551758,-00000.004883,00000.024414,-00000.092773
0000000001101,00002.109375,00001.621094,00002.470703,00002.460938,00002.817383,00002.939453,00002.709961,00003.139648,00002.250977,00001.845703,-00000.351563,-00000.107422,-00000.551758,-00000.004883,00000.024414,-00000.092773
0000000001102,00002.109375,00001.621094,00002.470703,00002.465820,00002.817383,00002.934570,00002.709961,00003.139648,00002.250977,00001.845703,-00000.351563,-00000.107422,-00000.551758,-00000.004883,00000.029297,-00000.092773
0000000001103,00002.109375,00001.621094,00002.470703,00002.465820,00002.817383,00002.939453,00002.709961,00003.139648,00002.250977,00001.845703,-00000.351563,-00000.107422,-00000.546875,-00000.004883,00000.029297,-00000.092773
0000000001104,00002.114258,00001.621094,00002.470703,00002.470703,00002.817383,00002.939453,00002.709961,00003.144531,00002.246094,00001.845703,-00000.351563,-00000.107422,-00000.546875,00000.000000,00000.034180,-00000.092773
0000000001105,00002.109375,00001.616211,00002.470703,00002.470703,00002.812500,00002.939453,00002.705078,00003.144531,00002.250977,00001.845703,-00000.351563,-00000.107422,-00000.546875,-00000.004883,00000.029297,-00000.097656
0000000001106,00002.109375,00001.621094,00002.470703,00002.470703,00002.822266,00002.934570,00002.714844,00003.139648,00002.250977,00001.845703,-00000.351563,-00000.107422,-00000.551758,-00000.004883,00000.024414,-00000.092773
0000000001107,00002.114258,00001.621094,00002.475586,00002.465820,00002.822266,00002.939453,00002.709961,00003.144531,00002.246094,00001.850586,-00000.351563,-00000.107422,-00000.551758,-00000.009766,00000.019531,-00000.087891
0000000001108,00002.109375,00001.621094,00002.470703,00002.460938,00002.822266,00002.934570,00002.709961,00003.139648,00002.250977,00001.845703,-00000.351563,-00000.107422,-00000.551758,-00000.004883,00000.019531,-00000.087891
0000000001109,00002.109375,00001.621094,00002.465820,00002.465820,00002.822266,00002.934570,00002.709961,00003.139648,00002.250977,00001.850586,-00000.351563,-00000.107422,-00000.551758,-00000.004883,00000.019531,-00000.087891
0000000001110,00002.109375,00001.616211,00002.470703,00002.465820,00002.822266,00002.934570,00002.709961,00003.139648,00002.250977,00001.850586,-00000.351563,-00000.107422,-00000.551758,-00000.004883,00000.019531,-00000.087891
0000000001111,00002.109375,00001.621094,00002.470703,00002.470703,00002.822266,00002.939453,00002.714844,00003.139648,00002.255859,00001.855469,-00000.356445,-00000.107422,-00000.551758,-00000.004883,00000.019531,-00000.087891
0000000001112,00002.109375,00001.616211,00002.470703,00002.465820,00002.812500,00002.939453,00002.709961,00003.139648,00002.246094,00001.850586,-00000.356445,-00000.107422,-00000.551758,00000.000000,00000.024414,-00000.087891
0000000001113,00002.109375,00001.621094,00002.470703,00002.465820,00002.822266,00002.939453,00002.714844,00003.144531,00002.250977,00001.860352,-00000.351563,-00000.107422,-00000.546875,00000.000000,00000.024414,-00000.087891
0000000001114,00002.109375,00001.621094,00002.470703,00002.470703,00002.827148,00002.939453,00002.714844,00003.144531,00002.255859,00001.855469,-00000.351563,-00000.107422,-00000.546875,00000.000000,00000.029297,-00000.087891
0000000001115,00002.109375,00001.621094,00002.470703,00002.465820,00002.822266,00002.939453,00002.709961,00003.139648,00002.250977,00001.855469,-00000.351563,-00000.107422,-00000.551758,00000.000000,00000.024414,-00000.087891
0000000001116,00002.109375,00001.621094,00002.470703,00002.465820,00002.822266,00002.939453,00002.714844,00003.139648,00002.250977,00001.850586,-00000.351563,-00000.107422,-00000.551758,-00000.004883,00000.019531,-00000.087891
0000000001117,00002.114258,00001.616211,00002.470703,00002.465820,00002.817383,00002.939453,00002.705078,00003.144531,00002.246094,00001.850586,-00000.351563,-00000.107422,-00000.551758,-00000.004883,00000.019531,-00000.087891
0000000001118,00002.109375,00001.616211,00002.470703,00002.470703,00002.817383,00002.939453,00002.705078,00003.139648,00002.250977,00001.855469,-00000.351563,-00000.107422,-00000.551758,-00000.004883,00000.019531,-00000.087891
0000000001119,00002.109375,00001.621094,00002.470703,00002.465820,00002.822266,00002.934570,00002.709961,00003.139648,00002.250977,00001.860352,-00000.351563,-00000.107422,-00000.551758,-00000.004883,00000.019531,-00000.087891
0000000001120,00002.114258,00001.616211,00002.475586,00002.470703,00002.822266,00002.944336,00002.709961,00003.144531,00002.250977,00001.860352,-00000.351563,-00000.107422,-00000.551758,-00000.004883,00000.014648,-00000.087891
0000000001121,00002.109375,00001.616211,00002.470703,00002.470703,00002.812500,00002.939453,00002.709961,00003.139648,00002.250977,00001.860352,-00000.351563,-00000.107422,-00000.551758,-00000.004883,00000.014648,-00000.087891
0000000001122,00002.109375,00001.616211,00002.470703,00002.465820,00002.822266,00002.934570,00002.709961,00003.139648,00002.250977,00001.865234,-00000.351563,-00000.107422,-00000.551758,-00000.004883,00000.014648,-00000.087891
0000000001123,00002.104492,00001.621094,00002.465820,00002.465820,00002.817383,00002.934570,00002.709961,00003.134766,00002.250977,00001.860352,-00000.351563,-00000.107422,-00000.551758,-00000.004883,00000.019531,-00000.087891
0000000001124,00002.109375,00001.621094,00002.470703,00002.465820,00002.822266,00002.934570,00002.709961,00003.139648,00002.250977,00001.865234,-00000.351563,-00000.107422,-00000.551758,-00000.004883,00000.019531,-00000.087891
0000000001125,00002.114258,00001.616211,00002.475586,00002.465820,00002.817383,00002.939453,00002.705078,00003.144531,00002.246094,00001.865234,-00000.351563,-00000.107422,-00000.551758,-00000.004883,00000.014648,-00000.087891
0000000001126,00002.109375,00001.616211,00002.470703,00002.465820,00002.822266,00002.939453,00002.709961,00003.144531,00002.246094,00001.865234,-00000.351563,-00000.107422,-00000.546875,-00000.004883,00000.019531,-00000.087891
0000000001127,00002.114258,00001.621094,00002.475586,00002.465820,00002.822266,00002.939453,00002.709961,00003.144531,00002.246094,00001.889648,-00000.351563,-00000.107422,-00000.546875,-00000.004883,00000.019531,-00000.087891
0000000001128,00002.114258,00001.621094,00002.470703,00002.465820,00002.817383,00002.944336,00002.705078,00003.144531,00002.246094,00001.909180,-00000.351563,-00000.102539,-00000.546875,00000.000000,00000.024414,-00000.087891
0000000001129,00002.114258,00001.621094,00002.470703,00002.475586,00002.822266,00002.944336,00002.709961,00003.144531,00002.250977,00001.904297,-00000.346680,-00000.102539,-00000.546875,00000.000000,00000.024414,-00000.087891
0000000001130,00002.114258,00001.616211,00002.475586,00002.465820,00002.822266,00002.939453,00002.705078,00003.144531,00002.246094,00001.904297,-00000.346680,-00000.107422,-00000.546875,00000.000000,00000.029297,-00000.083008
0000000001131,00002.109375,00001.616211,00002.470703,00002.465820,00002.817383,00002.939453,00002.705078,00003.144531,00002.246094,00001.918945,-00000.346680,-00000.102539,-00000.546875,00000.000000,00000.034180,-00000.083008
0000000001132,00002.109375,00001.621094,00002.470703,00002.465820,00002.822266,00002.934570,00002.709961,00003.139648,00002.255859,00001.918945,-00000.346680,-00000.107422,-00000.546875,00000.000000,00000.034180,-00000.083008
0000000001133,00002.109375,00001.621094,00002.470703,00002.470703,00002.817383,00002.944336,00002.705078,00003.139648,00002.250977,00001.918945,-00000.346680,-00000.107422,-00000.546875,00000.000000,00000.034180,-00000.083008
0000000001134,00002.114258,00001.621094,00002.470703,00002.465820,00002.822266,00002.934570,00002.714844,00003.139648,00002.250977,00001.918945,-00000.346680,-00000.107422,-00000.546875,00000.000000,00000.029297,-00000.087891
0000000001135,00002.114258,00001.621094,00002.465820,00002.475586,00002.817383,00002.939453,00002.709961,00003.139648,00002.255859,00001.918945,-00000.346680,-00000.102539,-00000.541992,00000.000000,00000.029297,-00000.083008
0000000001136,00002.114258,00001.621094,00002.470703,00002.470703,00002.822266,00002.934570,00002.709961,00003.144531,00002.255859,00001.923828,-00000.346680,-00000.102539,-00000.537109,00000.000000,00000.029297,-00000.083008
0000000001137,00002.109375,00001.621094,00002.470703,00002.470703,00002.822266,00002.934570,00002.714844,00003.139648,00002.250977,00001.923828,-00000.341797,-00000.102539,-00000.541992,00000.004883,00000.034180,-00000.083008
0000000001138,00002.114258,00001.621094,00002.475586,00002.470703,00002.822266,00002.939453,00002.709961,00003.144531,00002.250977,00001.923828,-00000.346680,-00000.107422,-00000.541992,00000.004883,00000.039063,-00000.087891
0000000001139,00002.114258,00001.621094,00002.475586,00002.470703,00002.822266,00002.939453,00002.709961,00003.144531,00002.250977,00001.923828,-00000.346680,-00000.102539,-00000.541992,00000.004883,00000.039063,-00000.087891
0000000001140,00002.114258,00001.621094,00002.465820,00002.475586,00002.812500,00002.939453,00002.709961,00003.134766,00002.250977,00001.918945,-00000.341797,-00000.102539,-00000.537109,00000.004883,00000.029297,-00000.087891
0000000001141,00002.109375,00001.621094,00002.470703,00002.470703,00002.817383,00002.939453,00002.709961,00003.139648,00002.250977,00001.918945,-00000.341797,-00000.102539,-00000.541992,00000.004883,00000.024414,-00000.087891
0000000001142,00002.109375,00001.616211,00002.475586,00002.465820,00002.812500,00002.939453,00002.705078,00003.139648,00002.246094,00001.923828,-00000.346680,-00000.102539,-00000.541992,00000.000000,00000.024414,-00000.087891
0000000001143,00002.109375,00001.621094,00002.470703,00002.465820,00002.817383,00002.934570,00002.709961,00003.139648,00002.250977,00001.918945,-00000.346680,-00000.107422,-00000.546875,00000.000000,00000.024414,-00000.087891
0000000001144,00002.109375,00001.616211,00002.470703,00002.465820,00002.812500,00002.939453,00002.705078,00003.139648,00002.246094,00001.914063,-00000.346680,-00000.102539,-00000.541992,00000.004883,00000.029297,-00000.087891
0000000001145,00002.109375,00001.616211,00002.465820,00002.470703,00002.812500,00002.939453,00002.705078,00003.139648,00002.250977,00001.918945,-00000.341797,-00000.102539,-00000.541992,00000.004883,00000.024414,-00000.087891
0000000001146,00002.104492,00001.616211,00002.465820,00002.470703,00002.812500,00002.939453,00002.709961,00003.134766,00002.250977,00001.918945,-00000.341797,-00000.102539,-00000.541992,00000.004883,00000.024414,-00000.087891
0000000001147,00002.114258,00001.616211,00002.475586,00002.470703,00002.817383,00002.944336,00002.709961,00003.144531,00002.250977,00001.923828,-00000.341797,-00000.102539,-00000.537109,00000.004883,00000.024414,-00000.087891
0000000001148,00002.114258,00001.611328,00002.475586,00002.465820,00002.812500,00002.939453,00002.705078,00003.139648,00002.246094,00001.918945,-00000.346680,-00000.102539,-00000.541992,00000.004883,00000.024414,-00000.087891
0000000001149,00002.114258,00001.616211,00002.475586,00002.465820,00002.817383,00002.939453,00002.705078,00003.139648,00002.246094,00001.918945,-00000.346680,-00000.107422,-00000.541992,00000.004883,00000.024414,-00000.087891
0000000001150,00002.109375,00001.621094,00002.470703,00002.470703,00002.822266,00002.939453,00002.709961,00003.139648,00002.250977,00001.918945,-00000.346680,-00000.102539,-00000.537109,00000.004883,00000.019531,-00000.087891
0000000001151,00002.109375,00001.616211,00002.475586,00002.465820,00002.812500,00002.939453,00002.705078,00003.144531,00002.246094,00001.923828,-00000.341797,-00000.102539,-00000.541992,00000.004883,00000.019531,-00000.087891
0000000001152,00002.109375,00001.616211,00002.465820,00002.470703,00002.812500,00002.939453,00002.709961,00003.134766,00002.250977,00001.918945,-00000.341797,-00000.102539,-00000.537109,00000.004883,00000.014648,-00000.087891
0000000001153,00002.109375,00001.616211,00002.465820,00002.465820,00002.812500,00002.934570,00002.705078,00003.134766,00002.246094,00001.918945,-00000.341797,-00000.102539,-00000.537109,00000.004883,00000.019531,-00000.087891
0000000001154,00002.109375,00001.616211,00002.470703,00002.470703,00002.817383,00002.939453,00002.709961,00003.144531,00002.246094,00001.923828,-00000.341797,-00000.102539,-00000.537109,00000.004883,00000.019531,-00000.087891
0000000001155,00002.114258,00001.621094,00002.470703,00002.470703,00002.817383,00002.944336,00002.709961,00003.139648,00002.250977,00001.918945,-00000.341797,-00000.102539,-00000.537109,00000.004883,00000.024414,-00000.087891
0000000001156,00002.109375,00001.616211,00002.475586,00002.470703,00002.822266,00002.939453,00002.709961,00003.139648,00002.250977,00001.923828,-00000.346680,-00000.102539,-00000.537109,00000.004883,00000.024414,-00000.083008
0000000001157,00002.109375,00001.621094,00002.470703,00002.470703,00002.817383,00002.939453,00002.709961,00003.139648,00002.255859,00001.918945,-00000.346680,-00000.107422,-00000.541992,00000.000000,00000.014648,-00000.083008
0000000001158,00002.109375,00001.616211,00002.470703,00002.470703,00002.817383,00002.939453,00002.705078,00003.139648,00002.250977,00001.914063,-00000.346680,-00000.102539,-00000.541992,00000.004883,00000.014648,-00000.083008
0000000001159,00002.109375,00001.621094,00002.470703,00002.465820,00002.817383,00002.934570,00002.709961,00003.139648,00002.250977,00001.918945,-00000.346680,-00000.102539,-00000.541992,00000.004883,00000.014648,-00000.083008
0000000001160,00002.109375,00001.621094,00002.470703,00002.470703,00002.817383,00002.944336,00002.709961,00003.139648,00002.255859,00001.918945,-00000.341797,-00000.102539,-00000.537109,00000.004883,00000.019531,-00000.087891
0000000001161,00002.109375,00001.621094,00002.470703,00002.475586,00002.817383,00002.939453,00002.709961,00003.139648,00002.250977,00001.918945,-00000.341797,-00000.102539,-00000.537109,00000.009766,00000.019531,-00000.087891
0000000001162,00002.114258,00001.616211,00002.475586,00002.470703,00002.817383,00002.944336,00002.709961,00003.144531,00002.250977,00001.923828,-00000.341797,-00000.102539,-00000.537109,00000.009766,00000.019531,-00000.087891
0000000001163,00002.109375,00001.616211,00002.470703,00002.465820,00002.817383,00002.934570,00002.705078,00003.139648,00002.246094,00001.918945,-00000.341797,-00000.102539,-00000.537109,00000.004883,00000.024414,-00000.087891
0000000001164,00002.109375,00001.616211,00002.475586,00002.465820,00002.822266,00002.939453,00002.709961,00003.139648,00002.250977,00001.918945,-00000.341797,-00000.102539,-00000.537109,00000.004883,00000.024414,-00000.083008
0000000001165,00002.114258,00001.616211,00002.475586,00002.470703,00002.822266,00002.939453,00002.709961,00003.139648,00002.250977,00001.918945,-00000.341797,-00000.102539,-00000.537109,00000.004883,00000.024414,-00000.083008
0000000001166,00002.109375,00001.621094,00002.475586,00002.465820,00002.822266,00002.939453,00002.709961,00003.139648,00002.250977,00001.923828,-00000.341797,-00000.102539,-00000.537109,00000.004883,00000.019531,-00000.083008
0000000001167,00002.109375,00001.621094,00002.465820,00002.470703,00002.817383,00002.934570,00002.709961,00003.139648,00002.250977,00001.918945,-00000.346680,-00000.102539,-00000.541992,00000.004883,00000.019531,-00000.083008
0000000001168,00002.114258,00001.616211,00002.470703,00002.470703,00002.817383,00002.944336,00002.705078,00003.144531,00002.250977,00001.923828,-00000.346680,-00000.102539,-00000.541992,00000.004883,00000.019531,-00000.083008
0000000001169,00002.109375,00001.616211,00002.470703,00002.465820,00002.812500,00002.939453,00002.705078,00003.144531,00002.246094,00001.918945,-00000.341797,-00000.102539,-00000.537109,00000.004883,00000.019531,-00000.083008
0000000001170,00002.109375,00001.621094,00002.470703,00002.470703,00002.817383,00002.939453,00002.709961,00003.139648,00002.250977,00001.918945,-00000.341797,-00000.102539,-00000.537109,00000.004883,00000.024414,-00000.083008
0000000001171,00002.109375,00001.621094,00002.465820,00002.475586,00002.817383,00002.939453,00002.709961,00003.139648,00002.255859,00001.918945,-00000.341797,-00000.102539,-00000.537109,00000.004883,00000.019531,-00000.087891
0000000001172,00002.114258,00001.621094,00002.470703,00002.470703,00002.817383,00002.944336,00002.705078,00003.144531,00002.250977,00001.923828,-00000.346680,-00000.102539,-00000.537109,00000.009766,00000.019531,-00000.083008
0000000001173,00002.109375,00001.621094,00002.470703,00002.470703,00002.817383,00002.939453,00002.709961,00003.134766,00002.255859,00001.918945,-00000.346680,-00000.102539,-00000.537109,00000.004883,00000.014648,-00000.083008
0000000001174,00002.109375,00001.621094,00002.475586,00002.465820,00002.822266,00002.939453,00002.709961,00003.144531,00002.250977,00001.918945,-00000.346680,-00000.102539,-00000.537109,00000.004883,00000.019531,-00000.083008
0000000001175,00002.114258,00001.621094,00002.470703,00002.475586,00002.817383,00002.944336,00002.709961,00003.139648,00002.255859,00001.918945,-00000.346680,-00000.102539,-00000.537109,00000.004883,00000.019531,-00000.083008
0000000001176,00002.109375,00001.621094,00002.470703,00002.470703,00002.817383,00002.934570,00002.709961,00003.134766,00002.255859,00001.918945,-00000.341797,-00000.102539,-00000.532227,00000.009766,00000.024414,-00000.087891
0000000001177,00002.114258,00001.621094,00002.470703,00002.475586,00002.817383,00002.944336,00002.705078,00003.139648,00002.255859,00001.918945,-00000.341797,-00000.102539,-00000.537109,00000.004883,00000.024414,-00000.087891
0000000001178,00002.114258,00001.621094,00002.475586,00002.470703,00002.822266,00002.939453,00002.709961,00003.144531,00002.250977,00001.923828,-00000.341797,-00000.102539,-00000.537109,00000.004883,00000.024414,-00000.087891
0000000001179,00002.109375,00001.621094,00002.475586,00002.470703,00002.827148,00002.944336,00002.705078,00003.144531,00002.255859,00001.918945,-00000.341797,-00000.102539,-00000.537109,00000.009766,00000.019531,-00000.087891
0000000001180,00002.109375,00001.621094,00002.470703,00002.475586,00002.822266,00002.939453,00002.714844,00003.139648,00002.260742,00001.923828,-00000.341797,-00000.102539,-00000.537109,00000.009766,00000.019531,-00000.083008
0000000001181,00002.114258,00001.616211,00002.475586,00002.470703,00002.822266,00002.944336,00002.705078,00003.144531,00002.255859,00001.923828,-00000.341797,-00000.102539,-00000.537109,00000.004883,00000.019531,-00000.087891
0000000001182,00002.109375,00001.621094,00002.470703,00002.470703,00002.827148,00002.939453,00002.714844,00003.139648,00002.255859,00001.918945,-00000.341797,-00000.102539,-00000.537109,00000.009766,00000.029297,-00000.083008
0000000001183,00002.114258,00001.621094,00002.475586,00002.470703,00002.822266,00002.944336,00002.705078,00003.144531,00002.250977,00001.923828,-00000.341797,-00000.102539,-00000.537109,00000.009766,00000.029297,-00000.083008
0000000001184,00002.109375,00001.621094,00002.470703,00002.470703,00002.822266,00002.939453,00002.714844,00003.139648,00002.260742,00001.918945,-00000.341797,-00000.102539,-00000.537109,00000.009766,00000.024414,-00000.083008
0000000001185,00002.109375,00001.621094,00002.475586,00002.470703,00002.822266,00002.939453,00002.714844,00003.139648,00002.255859,00001.918945,-00000.346680,-00000.102539,-00000.537109,00000.004883,00000.019531,-00000.083008
0000000001186,00002.109375,00001.625977,00002.475586,00002.470703,00002.822266,00002.939453,00002.714844,00003.139648,00002.255859,00001.918945,-00000.341797,-00000.102539,-00000.537109,00000.004883,00000.019531,-00000.087891
0000000001187,00002.109375,00001.616211,00002.475586,00002.465820,00002.817383,00002.939453,00002.705078,00003.139648,00002.246094,00001.918945,-00000.341797,-00000.102539,-00000.541992,00000.004883,00000.019531,-00000.083008
0000000001188,00002.109375,00001.616211,00002.475586,00002.470703,00002.817383,00002.939453,00002.705078,00003.144531,00002.250977,00001.918945,-00000.341797,-00000.102539,-00000.537109,00000.009766,00000.019531,-00000.083008
0000000001189,00002.114258,00001.621094,00002.475586,00002.470703,00002.817383,00002.944336,00002.709961,00003.144531,00002.250977,00001.914063,-00000.341797,-00000.102539,-00000.537109,00000.009766,00000.019531,-00000.087891
0000000001190,00002.109375,00001.616211,00002.470703,00002.460938,00002.817383,00002.934570,00002.709961,00003.139648,00002.250977,00001.899414,-00000.341797,-00000.102539,-00000.541992,00000.004883,00000.014648,-00000.087891
0000000001191,00002.109375,00001.616211,00002.475586,00002.460938,00002.817383,00002.944336,00002.709961,00003.144531,00002.250977,00001.909180,-00000.341797,-00000.102539,-00000.541992,00000.004883,00000.009766,-00000.087891
0000000001192,00002.114258,00001.616211,00002.475586,00002.465820,00002.822266,00002.944336,00002.709961,00003.144531,00002.250977,00001.928711,-00000.341797,-00000.102539,-00000.541992,00000.004883,00000.014648,-00000.083008
0000000001193,00002.109375,00001.621094,00002.470703,00002.470703,00002.817383,00002.939453,00002.714844,00003.139648,00002.255859,00001.914063,-00000.341797,-00000.102539,-00000.537109,00000.009766,00000.014648,-00000.083008
0000000001194,00002.104492,00001.616211,00002.475586,00002.465820,00002.817383,00002.934570,00002.709961,00003.139648,00002.250977,00001.918945,-00000.341797,-00000.102539,-00000.532227,00000.009766,00000.019531,-00000.083008
0000000001195,00002.109375,00001.621094,00002.470703,00002.465820,00002.817383,00002.934570,00002.709961,00003.139648,00002.250977,00001.914063,-00000.346680,-00000.102539,-00000.537109,00000.004883,00000.019531,-00000.087891
0000000001196,00002.109375,00001.616211,00002.470703,00002.470703,00002.817383,00002.944336,00002.709961,00003.139648,00002.250977,00001.918945,-00000.341797,-00000.102539,-00000.532227,00000.009766,00000.019531,-00000.087891
0000000001197,00002.109375,00001.621094,00002.470703,00002.470703,00002.822266,00002.939453,00002.709961,00003.139648,00002.250977,00001.918945,-00000.341797,-00000.102539,-00000.537109,00000.009766,00000.014648,-00000.087891
0000000001198,00002.109375,00001.621094,00002.475586,00002.470703,00002.822266,00002.939453,00002.709961,00003.139648,00002.250977,00001.918945,-00000.341797,-00000.102539,-00000.537109,00000.009766,00000.014648,-00000.083008
0000000001199,00002.109375,00001.621094,00002.475586,00002.470703,00002.822266,00002.934570,00002.709961,00003.139648,00002.250977,00001.918945,-00000.341797,-00000.097656,-00000.537109,00000.009766,00000.014648,-00000.083008
0000000001200,00002.109375,00001.621094,00002.475586,00002.470703,00002.817383,00002.944336,00002.705078,00003.144531,00002.250977,00001.918945,-00000.341797,-00000.102539,-00000.541992,00000.004883,00000.009766,-00000.083008
0000000001201,00002.109375,00001.621094,00002.475586,00002.470703,00002.822266,00002.939453,00002.709961,00003.139648,00002.255859,00001.918945,-00000.341797,-00000.102539,-00000.537109,00000.004883,00000.009766,-00000.083008
0000000001202,00002.114258,00001.621094,00002.475586,00002.470703,00002.817383,00002.944336,00002.709961,00003.144531,00002.250977,00001.923828,-00000.341797,-00000.102539,-00000.537109,00000.004883,00000.014648,-00000.083008
0000000001203,00002.104492,00001.616211,00002.470703,00002.470703,00002.812500,00002.939453,00002.709961,00003.134766,00002.250977,00001.918945,-00000.341797,-00000.102539,-00000.537109,00000.009766,00000.014648,-00000.083008
0000000001204,00002.109375,00001.621094,00002.475586,00002.465820,00002.822266,00002.934570,00002.709961,00003.139648,00002.250977,00001.918945,-00000.341797,-00000.102539,-00000.537109,00000.009766,00000.019531,-00000.083008
0000000001205,00002.114258,00001.621094,00002.480469,00002.470703,00002.822266,00002.944336,00002.705078,00003.144531,00002.246094,00001.923828,-00000.341797,-00000.102539,-00000.537109,00000.009766,00000.019531,-00000.083008
0000000001206,00002.114258,00001.616211,00002.475586,00002.465820,00002.822266,00002.939453,00002.705078,00003.139648,00002.250977,00001.923828,-00000.341797,-00000.102539,-00000.532227,00000.009766,00000.019531,-00000.078125
0000000001207,00002.109375,00001.621094,00002.470703,00002.475586,00002.817383,00002.944336,00002.709961,00003.144531,00002.250977,00001.918945,-00000.341797,-00000.102539,-00000.537109,00000.009766,00000.019531,-00000.078125
0000000001208,00002.109375,00001.616211,00002.475586,00002.470703,00002.817383,00002.939453,00002.705078,00003.144531,00002.246094,00001.914063,-00000.341797,-00000.102539,-00000.537109,00000.009766,00000.019531,-00000.083008
0000000001209,00002.104492,00001.621094,00002.470703,00002.475586,00002.817383,00002.939453,00002.709961,00003.139648,00002.255859,00001.918945,-00000.346680,-00000.102539,-00000.537109,00000.004883,00000.014648,-00000.083008
0000000001210,00002.109375,00001.616211,00002.475586,00002.470703,00002.822266,00002.944336,00002.709961,00003.149414,00002.255859,00001.923828,-00000.341797,-00000.102539,-00000.537109,00000.004883,00000.019531,-00000.083008
0000000001211,00002.114258,00001.616211,00002.475586,00002.475586,00002.817383,00002.944336,00002.705078,00003.144531,00002.246094,00001.923828,-00000.341797,-00000.102539,-00000.537109,00000.009766,00000.019531,-00000.078125
0000000001212,00002.109375,00001.621094,00002.470703,00002.480469,00002.817383,00002.944336,00002.709961,00003.139648,00002.250977,00001.918945,-00000.341797,-00000.102539,-00000.537109,00000.009766,00000.019531,-00000.078125
0000000001213,00002.104492,00001.616211,00002.470703,00002.470703,00002.817383,00002.939453,00002.705078,00003.139648,00002.246094,00001.918945,-00000.346680,-00000.102539,-00000.537109,00000.004883,00000.019531,-00000.078125
0000000001214,00002.109375,00001.621094,00002.475586,00002.480469,00002.822266,00002.939453,00002.714844,00003.139648,00002.255859,00001.914063,-00000.346680,-00000.102539,-00000.537109,00000.004883,00000.014648,-00000.078125
0000000001215,00002.109375,00001.616211,00002.475586,00002.475586,00002.817383,00002.944336,00002.705078,00003.144531,00002.250977,00001.923828,-00000.346680,-00000.102539,-00000.537109,00000.004883,00000.014648,-00000.078125
0000000001216,00002.109375,00001.621094,00002.475586,00002.475586,00002.817383,00002.934570,00002.709961,00003.139648,00002.250977,00001.918945,-00000.346680,-00000.102539,-00000.537109,00000.009766,00000.014648,-00000.073242
0000000001217,00002.104492,00001.616211,00002.465820,00002.475586,00002.817383,00002.939453,00002.705078,00003.139648,00002.255859,00001.914063,-00000.346680,-00000.102539,-00000.537109,00000.009766,00000.019531,-00000.073242
0000000001218,00002.114258,00001.616211,00002.475586,00002.480469,00002.817383,00002.949219,00002.709961,00003.144531,00002.255859,00001.923828,-00000.341797,-00000.102539,-00000.537109,00000.009766,00000.019531,-00000.073242
0000000001219,00002.109375,00001.621094,00002.475586,00002.475586,00002.827148,00002.944336,00002.714844,00003.144531,00002.260742,00001.923828,-00000.346680,-00000.102539,-00000.537109,00000.009766,00000.019531,-00000.073242
0000000001220,00002.114258,00001.621094,00002.475586,00002.475586,00002.822266,00002.944336,00002.705078,00003.144531,00002.255859,00001.918945,-00000.346680,-00000.102539,-00000.537109,00000.009766,00000.014648,-00000.073242
0000000001221,00002.109375,00001.621094,00002.470703,00002.480469,00002.822266,00002.944336,00002.709961,00003.144531,00002.260742,00001.918945,-00000.346680,-00000.102539,-00000.541992,00000.004883,00000.019531,-00000.073242
0000000001222,00002.109375,00001.621094,00002.470703,00002.475586,00002.822266,00002.939453,00002.709961,00003.139648,00002.255859,00001.923828,-00000.341797,-00000.102539,-00000.541992,00000.004883,00000.019531,-00000.073242
0000000001223,00002.114258,00001.621094,00002.470703,00002.480469,00002.817383,00002.944336,00002.709961,00003.139648,00002.255859,00001.918945,-00000.341797,-00000.102539,-00000.537109,00000.009766,00000.024414,-00000.073242
0000000001224,00002.109375,00001.621094,00002.470703,00002.480469,00002.822266,00002.939453,00002.714844,00003.139648,00002.255859,00001.918945,-00000.341797,-00000.102539,-00000.537109,00000.004883,00000.029297,-00000.073242
0000000001225,00002.114258,00001.621094,00002.480469,00002.485352,00002.822266,00002.949219,00002.709961,00003.149414,00002.255859,00001.923828,-00000.341797,-00000.102539,-00000.537109,00000.009766,00000.029297,-00000.073242
0000000001226,00002.109375,00001.616211,00002.475586,00002.480469,00002.822266,00002.944336,00002.705078,00003.144531,00002.255859,00001.918945,-00000.341797,-00000.102539,-00000.537109,00000.009766,00000.024414,-00000.068359
0000000001227,00002.109375,00001.621094,00002.470703,00002.485352,00002.827148,00002.944336,00002.714844,00003.144531,00002.260742,00001.923828,-00000.341797,-00000.102539,-00000.537109,00000.009766,00000.024414,-00000.073242
0000000001228,00002.109375,00001.621094,00002.475586,00002.475586,00002.827148,00002.939453,00002.709961,00003.139648,00002.255859,00001.923828,-00000.346680,-00000.102539,-00000.532227,00000.009766,00000.019531,-00000.073242
0000000001229,00002.114258,00001.616211,00002.475586,00002.475586,00002.827148,00002.939453,00002.709961,00003.144531,00002.250977,00001.928711,-00000.346680,-00000.102539,-00000.532227,00000.009766,00000.024414,-00000.078125
0000000001230,00002.109375,00001.621094,00002.470703,00002.485352,00002.827148,00002.939453,00002.714844,00003.144531,00002.255859,00001.928711,-00000.346680,-00000.102539,-00000.537109,00000.009766,00000.024414,-00000.078125
0000000001231,00002.109375,00001.621094,00002.470703,00002.480469,00002.827148,00002.939453,00002.709961,00003.139648,00002.255859,00001.933594,-00000.346680,-00000.102539,-00000.537109,00000.004883,00000.019531,-00000.078125
0000000001232,00002.109375,00001.616211,00002.475586,00002.475586,00002.822266,00002.939453,00002.705078,00003.144531,00002.250977,00001.928711,-00000.341797,-00000.102539,-00000.537109,00000.004883,00000.019531,-00000.078125
0000000001233,00002.109375,00001.621094,00002.470703,00002.480469,00002.822266,00002.944336,00002.709961,00003.144531,00002.255859,00001.933594,-00000.341797,-00000.102539,-00000.537109,00000.009766,00000.019531,-00000.073242
0000000001234,00002.114258,00001.621094,00002.470703,00002.480469,00002.817383,00002.944336,00002.705078,00003.144531,00002.255859,00001.923828,-00000.341797,-00000.102539,-00000.537109,00000.004883,00000.024414,-00000.073242
0000000001235,00002.109375,00001.621094,00002.470703,00002.480469,00002.822266,00002.944336,00002.709961,00003.139648,00002.255859,00001.928711,-00000.341797,-00000.102539,-00000.537109,00000.004883,00000.019531,-00000.078125
0000000001236,00002.109375,00001.616211,00002.475586,00002.475586,00002.817383,00002.944336,00002.705078,00003.144531,00002.250977,00001.923828,-00000.341797,-00000.102539,-00000.537109,00000.004883,00000.014648,-00000.078125
0000000001237,00002.109375,00001.621094,00002.470703,00002.480469,00002.817383,00002.949219,00002.705078,00003.139648,00002.255859,00001.918945,-00000.341797,-00000.102539,-00000.537109,00000.004883,00000.014648,-00000.078125
0000000001238,00002.109375,00001.616211,00002.475586,00002.470703,00002.822266,00002.939453,00002.705078,00003.144531,00002.250977,00001.923828,-00000.341797,-00000.102539,-00000.537109,00000.009766,00000.019531,-00000.078125
0000000001239,00002.109375,00001.616211,00002.475586,00002.470703,00002.822266,00002.944336,00002.709961,00003.144531,00002.250977,00001.923828,-00000.341797,-00000.097656,-00000.537109,00000.009766,00000.024414,-00000.083008
0000000001240,00002.109375,00001.616211,00002.475586,00002.465820,00002.822266,00002.939453,00002.709961,00003.139648,00002.250977,00001.923828,-00000.336914,-00000.097656,-00000.532227,00000.009766,00000.029297,-00000.078125
0000000001241,00002.114258,00001.616211,00002.475586,00002.470703,00002.817383,00002.944336,00002.705078,00003.144531,00002.250977,00001.918945,-00000.341797,-00000.097656,-00000.532227,00000.009766,00000.029297,-00000.078125
0000000001242,00002.104492,00001.616211,00002.465820,00002.470703,00002.817383,00002.939453,00002.709961,00003.134766,00002.255859,00001.923828,-00000.336914,-00000.097656,-00000.537109,00000.009766,00000.034180,-00000.078125
0000000001243,00002.104492,00001.616211,00002.470703,00002.470703,00002.817383,00002.944336,00002.714844,00003.139648,00002.255859,00001.923828,-00000.341797,-00000.097656,-00000.532227,00000.009766,00000.029297,-00000.083008
0000000001244,00002.109375,00001.616211,00002.475586,00002.460938,00002.822266,00002.944336,00002.705078,00003.144531,00002.250977,00001.928711,-00000.336914,-00000.097656,-00000.537109,00000.009766,00000.029297,-00000.083008
0000000001245,00002.109375,00001.616211,00002.475586,00002.460938,00002.822266,00002.944336,00002.709961,00003.144531,00002.250977,00001.943359,-00000.336914,-00000.097656,-00000.537109,00000.009766,00000.029297,-00000.083008
0000000001246,00002.109375,00001.611328,00002.475586,00002.460938,00002.817383,00002.944336,00002.705078,00003.144531,00002.250977,00001.943359,-00000.336914,-00000.097656,-00000.532227,00000.004883,00000.024414,-00000.083008
0000000001247,00002.109375,00001.616211,00002.475586,00002.456055,00002.817383,00002.944336,00002.709961,00003.144531,00002.250977,00001.948242,-00000.336914,-00000.102539,-00000.537109,00000.004883,00000.014648,-00000.087891
0000000001248,00002.109375,00001.616211,00002.475586,00002.456055,00002.822266,00002.944336,00002.709961,00003.144531,00002.250977,00001.948242,-00000.336914,-00000.097656,-00000.537109,00000.004883,00000.009766,-00000.087891
0000000001249,00002.109375,00001.611328,00002.470703,00002.460938,00002.812500,00002.949219,00002.705078,00003.139648,00002.250977,00001.948242,-00000.336914,-00000.102539,-00000.537109,00000.004883,00000.009766,-00000.087891
0000000001250,00002.109375,00001.616211,00002.470703,00002.456055,00002.812500,00002.939453,00002.700195,00003.134766,00002.250977,00001.948242,-00000.336914,-00000.097656,-00000.537109,00000.009766,00000.014648,-00000.087891
0000000001251,00002.109375,00001.616211,00002.470703,00002.460938,00002.812500,00002.944336,00002.709961,00003.139648,00002.255859,00001.948242,-00000.336914,-00000.102539,-00000.532227,00000.009766,00000.014648,-00000.083008
0000000001252,00002.104492,00001.616211,00002.475586,00002.456055,00002.822266,00002.939453,00002.709961,00003.144531,00002.250977,00001.948242,-00000.336914,-00000.102539,-00000.537109,00000.004883,00000.009766,-00000.083008
0000000001253,00002.104492,00001.616211,00002.475586,00002.451172,00002.817383,00002.939453,00002.709961,00003.139648,00002.246094,00001.948242,-00000.341797,-00000.102539,-00000.541992,00000.004883,00000.009766,-00000.087891
0000000001254,00002.104492,00001.616211,00002.470703,00002.456055,00002.817383,00002.939453,00002.709961,00003.139648,00002.255859,00001.943359,-00000.341797,-00000.097656,-00000.541992,00000.004883,00000.009766,-00000.083008
0000000001255,00002.104492,00001.616211,00002.465820,00002.456055,00002.812500,00002.939453,00002.705078,00003.134766,00002.250977,00001.943359,-00000.336914,-00000.102539,-00000.537109,00000.009766,00000.014648,-00000.087891
0000000001256,00002.109375,00001.611328,00002.470703,00002.451172,00002.812500,00002.939453,00002.700195,00003.139648,00002.246094,00001.948242,-00000.336914,-00000.097656,-00000.537109,00000.004883,00000.014648,-00000.083008
0000000001257,00002.109375,00001.616211,00002.475586,00002.456055,00002.817383,00002.944336,00002.705078,00003.139648,00002.250977,00001.938477,-00000.336914,-00000.102539,-00000.541992,00000.004883,00000.019531,-00000.083008
0000000001258,00002.104492,00001.611328,00002.470703,00002.451172,00002.817383,00002.939453,00002.705078,00003.139648,00002.250977,00001.933594,-00000.341797,-00000.102539,-00000.541992,00000.004883,00000.019531,-00000.083008
0000000001259,00002.104492,00001.611328,00002.475586,00002.451172,00002.817383,00002.939453,00002.705078,00003.139648,00002.250977,00001.933594,-00000.336914,-00000.097656,-00000.541992,00000.009766,00000.024414,-00000.083008
0000000001260,00002.109375,00001.616211,00002.475586,00002.451172,00002.822266,00002.939453,00002.709961,00003.139648,00002.250977,00001.933594,-00000.336914,-00000.102539,-00000.537109,00000.009766,00000.024414,-00000.083008
0000000001261,00002.109375,00001.616211,00002.470703,00002.456055,00002.817383,00002.944336,00002.705078,00003.139648,00002.255859,00001.928711,-00000.336914,-00000.102539,-00000.537109,00000.009766,00000.019531,-00000.087891
0000000001262,00002.104492,00001.611328,00002.470703,00002.451172,00002.817383,00002.939453,00002.705078,00003.139648,00002.246094,00001.933594,-00000.341797,-00000.097656,-00000.537109,00000.009766,00000.019531,-00000.087891
0000000001263,00002.104492,00001.616211,00002.470703,00002.456055,00002.817383,00002.939453,00002.709961,00003.139648,00002.250977,00001.928711,-00000.341797,-00000.102539,-00000.537109,00000.009766,00000.019531,-00000.083008
0000000001264,00002.109375,00001.616211,00002.475586,00002.451172,00002.817383,00002.939453,00002.709961,00003.139648,00002.246094,00001.933594,-00000.341797,-00000.097656,-00000.537109,00000.004883,00000.019531,-00000.087891
0000000001265,00002.109375,00001.616211,00002.475586,00002.456055,00002.817383,00002.944336,00002.709961,00003.144531,00002.250977,00001.933594,-00000.341797,-00000.102539,-00000.541992,00000.004883,00000.019531,-00000.087891
0000000001266,00002.114258,00001.611328,00002.470703,00002.456055,00002.812500,00002.944336,00002.705078,00003.139648,00002.246094,00001.928711,-00000.341797,-00000.102539,-00000.541992,00000.004883,00000.014648,-00000.087891
0000000001267,00002.109375,00001.616211,00002.470703,00002.456055,00002.812500,00002.949219,00002.709961,00003.139648,00002.250977,00001.923828,-00000.341797,-00000.102539,-00000.541992,00000.009766,00000.019531,-00000.087891
0000000001268,00002.114258,00001.616211,00002.475586,00002.456055,00002.817383,00002.949219,00002.709961,00003.144531,00002.250977,00001.923828,-00000.336914,-00000.097656,-00000.537109,00000.009766,00000.029297,-00000.087891
0000000001269,00002.104492,00001.616211,00002.470703,00002.451172,00002.817383,00002.939453,00002.709961,00003.139648,00002.250977,00001.928711,-00000.336914,-00000.097656,-00000.537109,00000.009766,00000.029297,-00000.087891
0000000001270,00002.099609,00001.616211,00002.470703,00002.451172,00002.817383,00002.939453,00002.709961,00003.139648,00002.250977,00001.923828,-00000.336914,-00000.097656,-00000.537109,00000.009766,00000.024414,-00000.087891
0000000001271,00002.109375,00001.616211,00002.475586,00002.451172,00002.822266,00002.944336,00002.705078,00003.139648,00002.246094,00001.923828,-00000.336914,-00000.097656,-00000.541992,00000.009766,00000.019531,-00000.087891
0000000001272,00002.104492,00001.616211,00002.470703,00002.456055,00002.817383,00002.944336,00002.705078,00003.139648,00002.250977,00001.918945,-00000.336914,-00000.102539,-00000.537109,00000.009766,00000.019531,-00000.087891
0000000001273,00002.109375,00001.616211,00002.475586,00002.451172,00002.822266,00002.944336,00002.709961,00003.139648,00002.246094,00001.928711,-00000.336914,-00000.097656,-00000.532227,00000.009766,00000.019531,-00000.092773
0000000001274,00002.104492,00001.621094,00002.475586,00002.451172,00002.822266,00002.939453,00002.709961,00003.139648,00002.250977,00001.933594,-00000.336914,-00000.097656,-00000.537109,00000.009766,00000.014648,-00000.087891
0000000001275,00002.104492,00001.616211,00002.475586,00002.446289,00002.822266,00002.954102,00002.705078,00003.144531,00002.250977,00001.938477,-00000.341797,-00000.097656,-00000.537109,00000.009766,00000.000000,-00000.087891
0000000001276,00002.104492,00001.611328,00002.475586,00002.451172,00002.812500,00002.958984,00002.705078,00003.144531,00002.250977,00001.928711,-00000.341797,-00000.102539,-00000.541992,00000.004883,-00000.004883,-00000.087891
0000000001277,00002.104492,00001.616211,00002.470703,00002.446289,00002.817383,00002.949219,00002.705078,00003.139648,00002.246094,00001.928711,-00000.341797,-00000.097656,-00000.537109,00000.009766,00000.009766,-00000.087891
0000000001278,00002.104492,00001.616211,00002.475586,00002.451172,00002.822266,00002.954102,00002.709961,00003.139648,00002.255859,00001.928711,-00000.336914,-00000.097656,-00000.537109,00000.009766,00000.014648,-00000.087891
0000000001279,00002.109375,00001.616211,00002.470703,00002.456055,00002.812500,00002.949219,00002.705078,00003.139648,00002.250977,00001.928711,-00000.341797,-00000.102539,-00000.537109,00000.009766,00000.014648,-00000.083008
0000000001280,00002.104492,00001.616211,00002.475586,00002.451172,00002.817383,00002.939453,00002.709961,00003.139648,00002.246094,00001.928711,-00000.341797,-00000.102539,-00000.537109,00000.009766,00000.000000,-00000.083008
0000000001281,00002.099609,00001.616211,00002.465820,00002.446289,00002.807617,00002.934570,00002.705078,00003.134766,00002.246094,00001.923828,-00000.341797,-00000.102539,-00000.541992,00000.009766,-00000.009766,-00000.083008
0000000001282,00002.104492,00001.616211,00002.475586,00002.451172,00002.812500,00002.944336,00002.705078,00003.144531,00002.250977,00001.928711,-00000.341797,-00000.102539,-00000.541992,00000.004883,-00000.009766,-00000.083008
0000000001283,00002.104492,00001.611328,00002.470703,00002.446289,00002.807617,00002.939453,00002.705078,00003.139648,00002.250977,00001.923828,-00000.341797,-00000.097656,-00000.537109,00000.009766,-00000.004883,-00000.087891
0000000001284,00002.099609,00001.616211,00002.470703,00002.446289,00002.807617,00002.939453,00002.705078,00003.129883,00002.246094,00001.918945,-00000.341797,-00000.102539,-00000.537109,00000.009766,00000.000000,-00000.087891
0000000001285,00002.099609,00001.611328,00002.470703,00002.446289,00002.812500,00002.939453,00002.709961,00003.134766,00002.250977,00001.918945,-00000.341797,-00000.097656,-00000.537109,00000.009766,00000.000000,-00000.087891
0000000001286,00002.099609,00001.611328,00002.470703,00002.446289,00002.807617,00002.939453,00002.700195,00003.139648,00002.241211,00001.923828,-00000.341797,-00000.097656,-00000.537109,00000.009766,-00000.004883,-00000.083008
0000000001287,00002.104492,00001.616211,00002.470703,00002.451172,00002.812500,00002.939453,00002.705078,00003.134766,00002.246094,00001.923828,-00000.336914,-00000.102539,-00000.537109,00000.009766,-00000.004883,-00000.087891
0000000001288,00002.099609,00001.616211,00002.470703,00002.451172,00002.812500,00002.939453,00002.709961,00003.139648,00002.250977,00001.923828,-00000.336914,-00000.097656,-00000.537109,00000.004883,00000.000000,-00000.083008
0000000001289,00002.099609,00001.616211,00002.470703,00002.446289,00002.812500,00002.939453,00002.705078,00003.134766,00002.241211,00001.923828,-00000.336914,-00000.102539,-00000.537109,00000.004883,00000.000000,-00000.087891
0000000001290,00002.104492,00001.611328,00002.470703,00002.451172,00002.807617,00002.944336,00002.705078,00003.144531,00002.246094,00001.918945,-00000.336914,-00000.097656,-00000.537109,00000.004883,00000.000000,-00000.087891
0000000001291,00002.104492,00001.611328,00002.475586,00002.446289,00002.812500,00002.944336,00002.705078,00003.139648,00002.246094,00001.923828,-00000.336914,-00000.102539,-00000.537109,00000.009766,00000.004883,-00000.083008
0000000001292,00002.104492,00001.611328,00002.475586,00002.451172,00002.812500,00002.944336,00002.705078,00003.139648,00002.246094,00001.928711,-00000.336914,-00000.097656,-00000.537109,00000.009766,00000.000000,-00000.083008
0000000001293,00002.104492,00001.616211,00002.470703,00002.460938,00002.812500,00002.939453,00002.705078,00003.134766,00002.246094,00001.923828,-00000.336914,-00000.097656,-00000.537109,00000.009766,-00000.009766,-00000.083008
0000000001294,00002.104492,00001.611328,00002.470703,00002.465820,00002.812500,00002.944336,00002.705078,00003.144531,00002.246094,00001.928711,-00000.336914,-00000.102539,-00000.537109,00000.004883,-00000.014648,-00000.078125
0000000001295,00002.104492,00001.616211,00002.470703,00002.470703,00002.812500,00002.944336,00002.705078,00003.139648,00002.250977,00001.928711,-00000.336914,-00000.097656,-00000.532227,00000.009766,-00000.004883,-00000.078125
0000000001296,00002.104492,00001.611328,00002.470703,00002.470703,00002.807617,00002.939453,00002.700195,00003.134766,00002.246094,00001.923828,-00000.336914,-00000.102539,-00000.532227,00000.009766,00000.000000,-00000.078125
0000000001297,00002.104492,00001.616211,00002.470703,00002.470703,00002.817383,00002.944336,00002.709961,00003.139648,00002.250977,00001.928711,-00000.336914,-00000.097656,-00000.532227,00000.004883,-00000.004883,-00000.078125
0000000001298,00002.104492,00001.611328,00002.475586,00002.470703,00002.817383,00002.939453,00002.700195,00003.139648,00002.246094,00001.928711,-00000.336914,-00000.102539,-00000.537109,00000.009766,-00000.009766,-00000.073242
0000000001299,00002.099609,00001.611328,00002.470703,00002.470703,00002.812500,00002.939453,00002.705078,00003.139648,00002.250977,00001.923828,-00000.336914,-00000.097656,-00000.537109,00000.004883,-00000.009766,-00000.068359
0000000001300,00002.104492,00001.616211,00002.470703,00002.470703,00002.817383,00002.939453,00002.705078,00003.134766,00002.250977,00001.923828,-00000.336914,-00000.102539,-00000.537109,00000.004883,-00000.009766,-00000.063477
0000000001301,00002.104492,00001.616211,00002.475586,00002.465820,00002.812500,00002.939453,00002.700195,00003.139648,00002.246094,00001.928711,-00000.336914,-00000.097656,-00000.537109,00000.004883,-00000.009766,-00000.063477
0000000001302,00002.104492,00001.616211,00002.465820,00002.470703,00002.807617,00002.939453,00002.700195,00003.134766,00002.250977,00001.923828,-00000.336914,-00000.102539,-00000.537109,00000.004883,-00000.009766,-00000.063477
0000000001303,00002.099609,00001.616211,00002.465820,00002.470703,00002.812500,00002.939453,00002.705078,00003.134766,00002.250977,00001.928711,-00000.336914,-00000.097656,-00000.537109,00000.004883,-00000.009766,-00000.063477
0000000001304,00002.104492,00001.616211,00002.470703,00002.470703,00002.817383,00002.944336,00002.705078,00003.144531,00002.246094,00001.928711,-00000.336914,-00000.097656,-00000.537109,00000.004883,00000.000000,-00000.063477
0000000001305,00002.099609,00001.616211,00002.470703,00002.465820,00002.807617,00002.939453,00002.700195,00003.134766,00002.246094,00001.923828,-00000.336914,-00000.097656,-00000.532227,00000.009766,00000.004883,-00000.058594
0000000001306,00002.099609,00001.616211,00002.470703,00002.470703,00002.812500,00002.939453,00002.709961,00003.139648,00002.250977,00001.928711,-00000.341797,-00000.097656,-00000.527344,00000.009766,00000.004883,-00000.058594
0000000001307,00002.099609,00001.611328,00002.465820,00002.470703,00002.807617,00002.939453,00002.700195,00003.134766,00002.246094,00001.918945,-00000.341797,-00000.097656,-00000.532227,00000.009766,00000.009766,-00000.058594
0000000001308,00002.104492,00001.616211,00002.470703,00002.480469,00002.812500,00002.944336,00002.705078,00003.139648,00002.250977,00001.923828,-00000.341797,-00000.097656,-00000.532227,00000.009766,00000.009766,-00000.058594
0000000001309,00002.104492,00001.616211,00002.475586,00002.475586,00002.812500,00002.944336,00002.705078,00003.139648,00002.246094,00001.923828,-00000.341797,-00000.097656,-00000.532227,00000.009766,00000.004883,-00000.053711
0000000001310,00002.099609,00001.616211,00002.470703,00002.470703,00002.817383,00002.939453,00002.705078,00003.134766,00002.250977,00001.923828,-00000.341797,-00000.097656,-00000.537109,00000.009766,00000.004883,-00000.058594
0000000001311,00002.099609,00001.616211,00002.470703,00002.470703,00002.817383,00002.939453,00002.705078,00003.134766,00002.250977,00001.923828,-00000.341797,-00000.097656,-00000.537109,00000.009766,00000.009766,-00000.058594
0000000001312,00002.104492,00001.616211,00002.470703,00002.470703,00002.812500,00002.934570,00002.705078,00003.134766,00002.246094,00001.918945,-00000.341797,-00000.097656,-00000.537109,00000.009766,00000.014648,-00000.053711
0000000001313,00002.109375,00001.616211,00002.475586,00002.475586,00002.812500,00002.944336,00002.705078,00003.139648,00002.246094,00001.923828,-00000.341797,-00000.097656,-00000.537109,00000.009766,00000.009766,-00000.048828
0000000001314,00002.104492,00001.611328,00002.475586,00002.475586,00002.812500,00002.944336,00002.700195,00003.139648,00002.246094,00001.923828,-00000.341797,-00000.097656,-00000.532227,00000.009766,00000.009766,-00000.048828
0000000001315,00002.104492,00001.616211,00002.475586,00002.475586,00002.822266,00002.939453,00002.709961,00003.139648,00002.250977,00001.923828,-00000.341797,-00000.097656,-00000.532227,00000.009766,00000.009766,-00000.053711
0000000001316,00002.099609,00001.616211,00002.465820,00002.470703,00002.812500,00002.934570,00002.705078,00003.129883,00002.246094,00001.923828,-00000.341797,-00000.097656,-00000.532227,00000.009766,00000.014648,-00000.048828
0000000001317,00002.104492,00001.616211,00002.475586,00002.470703,00002.822266,00002.939453,00002.705078,00003.139648,00002.250977,00001.928711,-00000.341797,-00000.097656,-00000.537109,00000.004883,00000.009766,-00000.053711
0000000001318,00002.104492,00001.616211,00002.465820,00002.465820,00002.812500,00002.934570,00002.705078,00003.134766,00002.250977,00001.928711,-00000.341797,-00000.102539,-00000.537109,00000.004883,00000.000000,-00000.048828
0000000001319,00002.109375,00001.616211,00002.475586,00002.475586,00002.822266,00002.944336,00002.705078,00003.144531,00002.250977,00001.933594,-00000.341797,-00000.097656,-00000.541992,00000.004883,00000.004883,-00000.048828
0000000001320,00002.104492,00001.621094,00002.470703,00002.480469,00002.822266,00002.944336,00002.709961,00003.139648,00002.250977,00001.923828,-00000.341797,-00000.097656,-00000.537109,00000.009766,00000.009766,-00000.043945
0000000001321,00002.104492,00001.616211,00002.470703,00002.470703,00002.817383,00002.934570,00002.705078,00003.134766,00002.250977,00001.928711,-00000.341797,-00000.097656,-00000.532227,00000.009766,00000.009766,-00000.043945
0000000001322,00002.109375,00001.616211,00002.470703,00002.475586,00002.817383,00002.958984,00002.700195,00003.139648,00002.250977,00001.928711,-00000.346680,-00000.097656,-00000.532227,00000.009766,00000.004883,-00000.043945
0000000001323,00002.104492,00001.616211,00002.465820,00002.475586,00002.817383,00002.949219,00002.705078,00003.134766,00002.250977,00001.923828,-00000.346680,-00000.097656,-00000.537109,00000.009766,00000.004883,-00000.043945
0000000001324,00002.104492,00001.616211,00002.465820,00002.475586,00002.817383,00002.954102,00002.705078,00003.134766,00002.250977,00001.923828,-00000.346680,-00000.097656,-00000.532227,00000.009766,00000.009766,-00000.043945
0000000001325,00002.104492,00001.611328,00002.470703,00002.475586,00002.812500,00002.944336,00002.700195,00003.134766,00002.250977,00001.918945,-00000.346680,-00000.097656,-00000.532227,00000.009766,00000.014648,-00000.043945
0000000001326,00002.099609,00001.616211,00002.475586,00002.470703,00002.817383,00002.939453,00002.709961,00003.139648,00002.250977,00001.923828,-00000.346680,-00000.097656,-00000.532227,00000.009766,00000.014648,-00000.048828
0000000001327,00002.104492,00001.611328,00002.475586,00002.470703,00002.817383,00002.944336,00002.705078,00003.139648,00002.246094,00001.923828,-00000.346680,-00000.092773,-00000.532227,00000.009766,00000.019531,-00000.053711
0000000001328,00002.104492,00001.611328,00002.470703,00002.470703,00002.812500,00002.944336,00002.705078,00003.139648,00002.250977,00001.923828,-00000.341797,-00000.097656,-00000.532227,00000.009766,00000.014648,-00000.048828
0000000001329,00002.104492,00001.611328,00002.480469,00002.470703,00002.817383,00002.944336,00002.705078,00003.144531,00002.246094,00001.923828,-00000.341797,-00000.097656,-00000.532227,00000.009766,00000.014648,-00000.048828
0000000001330,00002.104492,00001.611328,00002.470703,00002.470703,00002.807617,00002.944336,00002.705078,00003.139648,00002.246094,00001.894531,-00000.341797,-00000.097656,-00000.532227,00000.009766,00000.014648,-00000.048828
0000000001331,00002.099609,00001.616211,00002.475586,00002.470703,00002.812500,00002.939453,00002.705078,00003.139648,00002.246094,00001.879883,-00000.341797,-00000.097656,-00000.532227,00000.009766,00000.019531,-00000.053711
0000000001332,00002.099609,00001.611328,00002.470703,00002.470703,00002.807617,00002.934570,00002.700195,00003.134766,00002.241211,00001.870117,-00000.341797,-00000.097656,-00000.537109,00000.009766,00000.019531,-00000.053711
0000000001333,00002.104492,00001.616211,00002.475586,00002.470703,00002.817383,00002.939453,00002.714844,00003.139648,00002.250977,00001.875000,-00000.336914,-00000.097656,-00000.537109,00000.009766,00000.024414,-00000.058594
0000000001334,00002.099609,00001.611328,00002.465820,00002.465820,00002.807617,00002.934570,00002.700195,00003.129883,00002.246094,00001.875000,-00000.336914,-00000.097656,-00000.532227,00000.009766,00000.024414,-00000.053711
0000000001335,00002.104492,00001.611328,00002.475586,00002.470703,00002.812500,00002.944336,00002.705078,00003.144531,00002.246094,00001.884766,-00000.336914,-00000.097656,-00000.532227,00000.009766,00000.019531,-00000.053711
0000000001336,00002.099609,00001.611328,00002.470703,00002.470703,00002.812500,00002.939453,00002.705078,00003.134766,00002.250977,00001.879883,-00000.336914,-00000.097656,-00000.532227,00000.009766,00000.019531,-00000.053711
0000000001337,00002.099609,00001.611328,00002.475586,00002.465820,00002.812500,00002.939453,00002.700195,00003.139648,00002.246094,00001.879883,-00000.336914,-00000.097656,-00000.537109,00000.009766,00000.019531,-00000.048828
0000000001338,00002.104492,00001.611328,00002.475586,00002.470703,00002.822266,00002.939453,00002.705078,00003.139648,00002.246094,00001.909180,-00000.341797,-00000.097656,-00000.532227,00000.009766,00000.019531,-00000.053711
0000000001339,00002.104492,00001.611328,00002.475586,00002.465820,00002.812500,00002.939453,00002.700195,00003.139648,00002.246094,00001.918945,-00000.341797,-00000.097656,-00000.532227,00000.009766,00000.009766,-00000.053711
0000000001340,00002.104492,00001.611328,00002.470703,00002.470703,00002.807617,00002.944336,00002.700195,00003.139648,00002.250977,00001.918945,-00000.341797,-00000.097656,-00000.537109,00000.009766,00000.004883,-00000.053711
0000000001341,00002.099609,00001.611328,00002.470703,00002.475586,00002.807617,00002.934570,00002.705078,00003.129883,00002.250977,00001.918945,-00000.341797,-00000.097656,-00000.537109,00000.009766,00000.000000,-00000.053711
0000000001342,00002.104492,00001.611328,00002.475586,00002.480469,00002.817383,00002.944336,00002.705078,00003.139648,00002.246094,00001.923828,-00000.346680,-00000.097656,-00000.537109,00000.004883,-00000.004883,-00000.053711
0000000001343,00002.099609,00001.611328,00002.470703,00002.470703,00002.817383,00002.934570,00002.705078,00003.139648,00002.246094,00001.923828,-00000.341797,-00000.097656,-00000.537109,00000.004883,-00000.004883,-00000.048828
0000000001344,00002.099609,00001.611328,00002.470703,00002.475586,00002.812500,00002.944336,00002.705078,00003.134766,00002.250977,00001.923828,-00000.341797,-00000.102539,-00000.537109,00000.004883,-00000.004883,-00000.053711
0000000001345,00002.104492,00001.616211,00002.470703,00002.475586,00002.817383,00002.939453,00002.709961,00003.139648,00002.250977,00001.918945,-00000.341797,-00000.097656,-00000.537109,00000.009766,00000.004883,-00000.053711
0000000001346,00002.099609,00001.616211,00002.475586,00002.470703,00002.817383,00002.934570,00002.705078,00003.134766,00002.246094,00001.918945,-00000.341797,-00000.097656,-00000.537109,00000.009766,00000.000000,-00000.053711
0000000001347,00002.099609,00001.616211,00002.470703,00002.470703,00002.812500,00002.939453,00002.705078,00003.134766,00002.250977,00001.923828,-00000.336914,-00000.097656,-00000.532227,00000.004883,-00000.004883,-00000.053711
0000000001348,00002.099609,00001.611328,00002.470703,00002.470703,00002.817383,00002.939453,00002.705078,00003.139648,00002.246094,00001.923828,-00000.336914,-00000.097656,-00000.532227,00000.009766,-00000.004883,-00000.053711
0000000001349,00002.104492,00001.611328,00002.475586,00002.475586,00002.812500,00002.944336,00002.705078,00003.139648,00002.246094,00001.923828,-00000.336914,-00000.097656,-00000.532227,00000.009766,-00000.004883,-00000.058594
0000000001350,00002.104492,00001.611328,00002.475586,00002.470703,00002.817383,00002.939453,00002.705078,00003.139648,00002.246094,00001.923828,-00000.336914,-00000.097656,-00000.532227,00000.009766,-00000.004883,-00000.058594
0000000001351,00002.104492,00001.611328,00002.475586,00002.475586,00002.817383,00002.949219,00002.705078,00003.144531,00002.246094,00001.923828,-00000.336914,-00000.097656,-00000.532227,00000.009766,-00000.004883,-00000.053711
0000000001352,00002.099609,00001.611328,00002.470703,00002.475586,00002.812500,00002.939453,00002.705078,00003.134766,00002.246094,00001.914063,-00000.341797,-00000.097656,-00000.537109,00000.004883,-00000.004883,-00000.058594
0000000001353,00002.099609,00001.616211,00002.475586,00002.470703,00002.822266,00002.939453,00002.709961,00003.139648,00002.250977,00001.923828,-00000.336914,-00000.097656,-00000.537109,00000.004883,-00000.004883,-00000.053711
0000000001354,00002.104492,00001.616211,00002.475586,00002.465820,00002.822266,00002.939453,00002.705078,00003.139648,00002.246094,00001.923828,-00000.336914,-00000.097656,-00000.537109,00000.004883,-00000.009766,-00000.053711
0000000001355,00002.099609,00001.606445,00002.475586,00002.470703,00002.812500,00002.939453,00002.700195,00003.139648,00002.246094,00001.918945,-00000.341797,-00000.097656,-00000.532227,00000.004883,-00000.004883,-00000.053711
0000000001356,00002.104492,00001.611328,00002.475586,00002.470703,00002.817383,00002.944336,00002.700195,00003.144531,00002.246094,00001.923828,-00000.336914,-00000.097656,-00000.532227,00000.004883,-00000.009766,-00000.058594
0000000001357,00002.099609,00001.611328,00002.470703,00002.475586,00002.812500,00002.939453,00002.705078,00003.134766,00002.250977,00001.918945,-00000.341797,-00000.097656,-00000.532227,00000.004883,-00000.009766,-00000.058594
0000000001358,00002.099609,00001.611328,00002.470703,00002.480469,00002.817383,00002.939453,00002.709961,00003.139648,00002.250977,00001.918945,-00000.341797,-00000.092773,-00000.532227,00000.004883,-00000.014648,-00000.058594
0000000001359,00002.099609,00001.616211,00002.470703,00002.480469,00002.817383,00002.939453,00002.705078,00003.139648,00002.250977,00001.918945,-00000.341797,-00000.097656,-00000.527344,00000.009766,-00000.019531,-00000.058594
0000000001360,00002.104492,00001.611328,00002.475586,00002.480469,00002.817383,00002.939453,00002.705078,00003.139648,00002.246094,00001.923828,-00000.346680,-00000.092773,-00000.527344,00000.009766,-00000.019531,-00000.053711
0000000001361,00002.104492,00001.616211,00002.470703,00002.490234,00002.817383,00002.939453,00002.709961,00003.134766,00002.250977,00001.918945,-00000.346680,-00000.097656,-00000.527344,00000.004883,-00000.019531,-00000.053711
0000000001362,00002.099609,00001.616211,00002.470703,00002.490234,00002.822266,00002.934570,00002.705078,00003.134766,00002.250977,00001.918945,-00000.346680,-00000.097656,-00000.527344,00000.004883,-00000.019531,-00000.053711
0000000001363,00002.104492,00001.611328,00002.475586,00002.490234,00002.827148,00002.939453,00002.705078,00003.144531,00002.250977,00001.923828,-00000.346680,-00000.092773,-00000.527344,00000.004883,-00000.024414,-00000.048828
0000000001364,00002.104492,00001.611328,00002.475586,00002.490234,00002.822266,00002.944336,00002.700195,00003.139648,00002.250977,00001.923828,-00000.346680,-00000.097656,-00000.527344,00000.004883,-00000.029297,-00000.053711
0000000001365,00002.104492,00001.616211,00002.475586,00002.485352,00002.832031,00002.934570,00002.709961,00003.139648,00002.255859,00001.928711,-00000.341797,-00000.097656,-00000.532227,00000.000000,-00000.029297,-00000.048828
0000000001366,00002.104492,00001.621094,00002.470703,00002.490234,00002.827148,00002.939453,00002.709961,00003.139648,00002.255859,00001.923828,-00000.346680,-00000.097656,-00000.532227,00000.000000,-00000.029297,-00000.048828
0000000001367,00002.104492,00001.611328,00002.475586,00002.490234,00002.822266,00002.939453,00002.700195,00003.139648,00002.250977,00001.923828,-00000.346680,-00000.102539,-00000.532227,00000.000000,-00000.024414,-00000.043945
0000000001368,00002.104492,00001.616211,00002.475586,00002.485352,00002.827148,00002.939453,00002.705078,00003.139648,00002.250977,00001.923828,-00000.351563,-00000.102539,-00000.527344,00000.000000,-00000.024414,-00000.048828
0000000001369,00002.109375,00001.616211,00002.470703,00002.495117,00002.827148,00002.949219,00002.709961,00003.144531,00002.255859,00001.923828,-00000.361328,-00000.097656,-00000.517578,00000.004883,-00000.029297,-00000.048828
0000000001370,00002.104492,00001.616211,00002.475586,00002.485352,00002.832031,00002.939453,00002.705078,00003.144531,00002.250977,00001.923828,-00000.385742,-00000.092773,-00000.512695,00000.004883,-00000.043945,-00000.048828
0000000001371,00002.099609,00001.621094,00002.465820,00002.485352,00002.832031,00002.934570,00002.705078,00003.134766,00002.250977,00001.918945,-00000.400391,-00000.097656,-00000.498047,00000.009766,-00000.053711,-00000.058594
0000000001372,00002.099609,00001.621094,00002.470703,00002.485352,00002.836914,00002.939453,00002.709961,00003.144531,00002.250977,00001.884766,-00000.410156,-00000.102539,-00000.502930,00000.004883,-00000.053711,-00000.063477
0000000001373,00002.099609,00001.621094,00002.465820,00002.490234,00002.832031,00002.939453,00002.709961,00003.144531,00002.250977,00001.875000,-00000.405273,-00000.102539,-00000.502930,00000.004883,-00000.053711,-00000.063477
0000000001374,00002.104492,00001.621094,00002.470703,00002.490234,00002.832031,00002.944336,00002.705078,00003.144531,00002.250977,00001.875000,-00000.400391,-00000.102539,-00000.507813,00000.009766,-00000.048828,-00000.063477
0000000001375,00002.099609,00001.621094,00002.470703,00002.490234,00002.832031,00002.934570,00002.709961,00003.139648,00002.250977,00001.860352,-00000.390625,-00000.102539,-00000.512695,00000.000000,-00000.043945,-00000.053711
0000000001376,00002.094727,00001.616211,00002.470703,00002.485352,00002.832031,00002.929688,00002.709961,00003.144531,00002.250977,00001.845703,-00000.385742,-00000.102539,-00000.522461,-00000.004883,-00000.048828,-00000.048828
0000000001377,00002.099609,00001.616211,00002.470703,00002.485352,00002.832031,00002.934570,00002.709961,00003.144531,00002.250977,00001.840820,-00000.380859,-00000.107422,-00000.527344,-00000.009766,-00000.048828,-00000.043945
0000000001378,00002.099609,00001.616211,00002.470703,00002.495117,00002.832031,00002.939453,00002.709961,00003.144531,00002.250977,00001.840820,-00000.380859,-00000.107422,-00000.527344,-00000.009766,-00000.048828,-00000.043945
0000000001379,00002.094727,00001.621094,00002.475586,00002.495117,00002.832031,00002.934570,00002.709961,00003.144531,00002.250977,00001.840820,-00000.375977,-00000.102539,-00000.527344,-00000.009766,-00000.048828,-00000.048828
0000000001380,00002.094727,00001.616211,00002.470703,00002.500000,00002.832031,00002.929688,00002.709961,00003.144531,00002.250977,00001.840820,-00000.371094,-00000.102539,-00000.522461,-00000.009766,-00000.043945,-00000.048828
0000000001381,00002.099609,00001.621094,00002.475586,00002.504883,00002.832031,00002.934570,00002.709961,00003.144531,00002.255859,00001.840820,-00000.371094,-00000.102539,-00000.527344,-00000.004883,-00000.043945,-00000.043945
0000000001382,00002.094727,00001.616211,00002.470703,00002.504883,00002.827148,00002.929688,00002.705078,00003.139648,00002.250977,00001.840820,-00000.371094,-00000.107422,-00000.527344,-00000.004883,-00000.043945,-00000.043945
0000000001383,00002.099609,00001.616211,00002.475586,00002.509766,00002.836914,00002.934570,00002.714844,00003.144531,00002.255859,00001.850586,-00000.371094,-00000.107422,-00000.527344,-00000.004883,-00000.043945,-00000.043945
0000000001384,00002.099609,00001.616211,00002.475586,00002.514648,00002.832031,00002.939453,00002.709961,00003.154297,00002.255859,00001.860352,-00000.371094,-00000.102539,-00000.522461,-00000.004883,-00000.048828,-00000.048828
0000000001385,00002.094727,00001.621094,00002.470703,00002.519531,00002.832031,00002.934570,00002.709961,00003.144531,00002.255859,00001.855469,-00000.375977,-00000.102539,-00000.522461,-00000.009766,-00000.053711,-00000.043945
0000000001386,00002.099609,00001.616211,00002.475586,00002.514648,00002.832031,00002.939453,00002.705078,00003.154297,00002.255859,00001.845703,-00000.380859,-00000.102539,-00000.527344,-00000.019531,-00000.063477,-00000.039063
0000000001387,00002.104492,00001.621094,00002.480469,00002.514648,00002.836914,00002.939453,00002.709961,00003.154297,00002.255859,00001.840820,-00000.390625,-00000.102539,-00000.527344,-00000.019531,-00000.063477,-00000.039063
0000000001388,00002.099609,00001.621094,00002.470703,00002.519531,00002.836914,00002.934570,00002.714844,00003.149414,00002.260742,00001.840820,-00000.395508,-00000.102539,-00000.522461,-00000.014648,-00000.058594,-00000.043945
0000000001389,00002.099609,00001.625977,00002.475586,00002.519531,00002.841797,00002.934570,00002.709961,00003.149414,00002.255859,00001.845703,-00000.400391,-00000.097656,-00000.512695,-00000.014648,-00000.058594,-00000.048828
0000000001390,00002.099609,00001.621094,00002.480469,00002.529297,00002.841797,00002.934570,00002.709961,00003.159180,00002.255859,00001.850586,-00000.405273,-00000.102539,-00000.512695,-00000.009766,-00000.053711,-00000.053711
0000000001391,00002.104492,00001.630859,00002.470703,00002.529297,00002.851563,00002.939453,00002.709961,00003.164063,00002.260742,00001.840820,-00000.424805,-00000.107422,-00000.517578,-00000.014648,-00000.063477,-00000.053711
0000000001392,00002.099609,00001.635742,00002.465820,00002.524414,00002.861328,00002.929688,00002.714844,00003.159180,00002.265625,00001.840820,-00000.449219,-00000.112305,-00000.507813,-00000.014648,-00000.073242,-00000.058594
0000000001393,00002.104492,00001.635742,00002.465820,00002.519531,00002.866211,00002.939453,00002.709961,00003.173828,00002.265625,00001.840820,-00000.454102,-00000.112305,-00000.507813,-00000.009766,-00000.083008,-00000.058594
0000000001394,00002.099609,00001.645508,00002.465820,00002.514648,00002.871094,00002.934570,00002.714844,00003.168945,00002.265625,00001.840820,-00000.468750,-00000.117188,-00000.507813,-00000.014648,-00000.092773,-00000.053711
0000000001395,00002.099609,00001.655273,00002.456055,00002.514648,00002.871094,00002.934570,00002.714844,00003.168945,00002.265625,00001.831055,-00000.493164,-00000.122070,-00000.507813,-00000.014648,-00000.097656,-00000.058594
0000000001396,00002.099609,00001.660156,00002.456055,00002.509766,00002.871094,00002.939453,00002.719727,00003.168945,00002.270508,00001.831055,-00000.527344,-00000.122070,-00000.502930,-00000.009766,-00000.102539,-00000.063477
0000000001397,00002.104492,00001.669922,00002.456055,00002.504883,00002.880859,00002.939453,00002.714844,00003.173828,00002.265625,00001.835938,-00000.585938,-00000.122070,-00000.488281,00000.000000,-00000.112305,-00000.063477
0000000001398,00002.099609,00001.674805,00002.446289,00002.504883,00002.875977,00002.939453,00002.709961,00003.173828,00002.265625,00001.835938,-00000.625000,-00000.122070,-00000.483398,00000.000000,-00000.126953,-00000.063477
0000000001399,00002.094727,00001.679688,00002.451172,00002.500000,00002.880859,00002.934570,00002.719727,00003.168945,00002.270508,00001.831055,-00000.649414,-00000.126953,-00000.488281,00000.000000,-00000.131836,-00000.058594
0000000001400,00002.094727,00001.679688,00002.451172,00002.500000,00002.875977,00002.934570,00002.709961,00003.173828,00002.265625,00001.826172,-00000.678711,-00000.126953,-00000.488281,00000.004883,-00000.131836,-00000.039063
0000000001401,00002.089844,00001.699219,00002.446289,00002.490234,00002.880859,00002.934570,00002.714844,00003.173828,00002.265625,00001.826172,-00000.717773,-00000.131836,-00000.488281,00000.000000,-00000.136719,-00000.029297
0000000001402,00002.099609,00001.704102,00002.446289,00002.500000,00002.885742,00002.939453,00002.719727,00003.178711,00002.265625,00001.826172,-00000.742188,-00000.136719,-00000.483398,00000.004883,-00000.141602,-00000.029297
0000000001403,00002.089844,00001.718750,00002.441406,00002.485352,00002.885742,00002.934570,00002.714844,00003.188477,00002.260742,00001.821289,-00000.781250,-00000.146484,-00000.488281,-00000.009766,-00000.136719,-00000.024414
0000000001404,00002.094727,00001.723633,00002.441406,00002.470703,00002.885742,00002.934570,00002.714844,00003.188477,00002.260742,00001.816406,-00000.810547,-00000.156250,-00000.498047,-00000.014648,-00000.141602,-00000.019531
0000000001405,00002.094727,00001.743164,00002.426758,00002.451172,00002.880859,00002.939453,00002.714844,00003.188477,00002.260742,00001.806641,-00000.859375,-00000.161133,-00000.493164,-00000.024414,-00000.141602,-00000.014648
0000000001406,00002.094727,00001.767578,00002.397461,00002.412109,00002.890625,00002.939453,00002.714844,00003.188477,00002.260742,00001.806641,-00000.952148,-00000.175781,-00000.493164,-00000.019531,-00000.146484,-00000.019531
0000000001407,00002.089844,00001.772461,00002.382813,00002.392578,00002.885742,00002.939453,00002.714844,00003.183594,00002.255859,00001.801758,-00000.991211,-00000.175781,-00000.478516,-00000.014648,-00000.146484,-00000.014648
0000000001408,00002.089844,00001.777344,00002.382813,00002.382813,00002.890625,00002.934570,00002.714844,00003.188477,00002.255859,00001.791992,-00001.035156,-00000.175781,-00000.468750,-00000.004883,-00000.146484,-00000.014648
0000000001409,00002.084961,00001.787109,00002.377930,00002.382813,00002.890625,00002.934570,00002.714844,00003.188477,00002.246094,00001.782227,-00001.079102,-00000.170898,-00000.473633,-00000.014648,-00000.146484,-00000.009766
0000000001410,00002.080078,00001.787109,00002.373047,00002.373047,00002.890625,00002.939453,00002.709961,00003.188477,00002.221680,00001.762695,-00001.118164,-00000.185547,-00000.478516,-00000.019531,-00000.151367,00000.000000
0000000001411,00002.075195,00001.796875,00002.363281,00002.363281,00002.890625,00002.934570,00002.714844,00003.188477,00002.207031,00001.733398,-00001.166992,-00000.190430,-00000.468750,-00000.014648,-00000.151367,00000.000000
0000000001412,00002.070313,00001.791992,00002.353516,00002.343750,00002.885742,00002.934570,00002.709961,00003.178711,00002.197266,00001.723633,-00001.220703,-00000.185547,-00000.463867,-00000.004883,-00000.146484,-00000.004883
0000000001413,00002.060547,00001.796875,00002.358398,00002.353516,00002.885742,00002.929688,00002.709961,00003.183594,00002.192383,00001.728516,-00001.245117,-00000.185547,-00000.454102,00000.000000,-00000.122070,-00000.009766
0000000001414,00002.055664,00001.796875,00002.348633,00002.368164,00002.885742,00002.924805,00002.709961,00003.178711,00002.182617,00001.708984,-00001.269531,-00000.185547,-00000.449219,00000.000000,-00000.112305,-00000.009766
0000000001415,00002.055664,00001.796875,00002.338867,00002.343750,00002.890625,00002.919922,00002.709961,00003.178711,00002.177734,00001.699219,-00001.289063,-00000.190430,-00000.458984,00000.000000,-00000.112305,-00000.009766
0000000001416,00002.050781,00001.796875,00002.333984,00002.280273,00002.885742,00002.919922,00002.709961,00003.178711,00002.172852,00001.694336,-00001.318359,-00000.190430,-00000.458984,-00000.014648,-00000.122070,00000.004883
0000000001417,00002.055664,00001.791992,00002.333984,00002.265625,00002.885742,00002.919922,00002.705078,00003.178711,00002.167969,00001.694336,-00001.318359,-00000.180664,-00000.454102,-00000.014648,-00000.136719,00000.014648
0000000001418,00002.045898,00001.782227,00002.338867,00002.270508,00002.880859,00002.924805,00002.705078,00003.183594,00002.167969,00001.694336,-00001.308594,-00000.180664,-00000.449219,-00000.014648,-00000.141602,00000.019531
0000000001419,00002.036133,00001.777344,00002.333984,00002.280273,00002.875977,00002.910156,00002.705078,00003.173828,00002.167969,00001.694336,-00001.284180,-00000.175781,-00000.439453,-00000.009766,-00000.131836,00000.029297
0000000001420,00002.041016,00001.772461,00002.343750,00002.353516,00002.885742,00002.910156,00002.705078,00003.178711,00002.167969,00001.694336,-00001.240234,-00000.175781,-00000.439453,00000.000000,-00000.117188,00000.029297
0000000001421,00002.031250,00001.762695,00002.348633,00002.387695,00002.880859,00002.900391,00002.709961,00003.178711,00002.163086,00001.694336,-00001.201172,-00000.166016,-00000.439453,00000.004883,-00000.092773,00000.029297
0000000001422,00002.031250,00001.757813,00002.353516,00002.382813,00002.875977,00002.905273,00002.705078,00003.178711,00002.158203,00001.699219,-00001.186523,-00000.166016,-00000.449219,-00000.004883,-00000.087891,00000.029297
0000000001423,00002.021484,00001.748047,00002.358398,00002.377930,00002.871094,00002.900391,00002.705078,00003.173828,00002.163086,00001.694336,-00001.176758,-00000.161133,-00000.444336,-00000.004883,-00000.092773,00000.039063
0000000001424,00002.021484,00001.752930,00002.368164,00002.373047,00002.875977,00002.905273,00002.709961,00003.173828,00002.163086,00001.699219,-00001.162109,-00000.151367,-00000.449219,-00000.009766,-00000.112305,00000.043945
0000000001425,00002.016602,00001.748047,00002.382813,00002.387695,00002.875977,00002.900391,00002.709961,00003.173828,00002.163086,00001.708984,-00001.123047,-00000.151367,-00000.454102,-00000.009766,-00000.112305,00000.048828
0000000001426,00002.021484,00001.743164,00002.397461,00002.397461,00002.871094,00002.900391,00002.705078,00003.178711,00002.163086,00001.718750,-00001.064453,-00000.146484,-00000.458984,-00000.004883,-00000.112305,00000.048828
0000000001427,00002.026367,00001.738281,00002.407227,00002.407227,00002.861328,00002.905273,00002.705078,00003.178711,00002.163086,00001.738281,-00001.020508,-00000.146484,-00000.463867,-00000.004883,-00000.092773,00000.048828
0000000001428,00002.021484,00001.738281,00002.407227,00002.412109,00002.866211,00002.900391,00002.709961,00003.173828,00002.172852,00001.733398,-00000.991211,-00000.141602,-00000.463867,00000.000000,-00000.078125,00000.048828
0000000001429,00002.016602,00001.733398,00002.416992,00002.416992,00002.856445,00002.895508,00002.709961,00003.173828,00002.167969,00001.743164,-00000.961914,-00000.131836,-00000.458984,00000.000000,-00000.063477,00000.043945
0000000001430,00002.021484,00001.728516,00002.426758,00002.407227,00002.841797,00002.905273,00002.705078,00003.173828,00002.167969,00001.757813,-00000.908203,-00000.126953,-00000.463867,00000.004883,-00000.063477,00000.039063
0000000001431,00002.021484,00001.723633,00002.446289,00002.431641,00002.846680,00002.900391,00002.709961,00003.178711,00002.172852,00001.772461,-00000.854492,-00000.117188,-00000.468750,00000.004883,-00000.063477,00000.039063
0000000001432,00002.021484,00001.718750,00002.465820,00002.460938,00002.836914,00002.905273,00002.705078,00003.173828,00002.177734,00001.782227,-00000.776367,-00000.107422,-00000.483398,00000.004883,-00000.068359,00000.043945
0000000001433,00002.016602,00001.708984,00002.470703,00002.475586,00002.832031,00002.895508,00002.709961,00003.173828,00002.182617,00001.791992,-00000.703125,-00000.102539,-00000.493164,00000.000000,-00000.048828,00000.043945
0000000001434,00002.021484,00001.699219,00002.475586,00002.490234,00002.817383,00002.900391,00002.705078,00003.173828,00002.182617,00001.791992,-00000.634766,-00000.097656,-00000.507813,00000.000000,-00000.029297,00000.048828
0000000001435,00002.021484,00001.694336,00002.480469,00002.504883,00002.817383,00002.900391,00002.705078,00003.173828,00002.182617,00001.796875,-00000.585938,-00000.092773,-00000.522461,00000.000000,-00000.019531,00000.058594
0000000001436,00002.021484,00001.694336,00002.480469,00002.514648,00002.817383,00002.895508,00002.709961,00003.168945,00002.182617,00001.791992,-00000.576172,-00000.087891,-00000.517578,00000.000000,-00000.014648,00000.048828
0000000001437,00002.021484,00001.689453,00002.485352,00002.524414,00002.812500,00002.900391,00002.705078,00003.178711,00002.192383,00001.806641,-00000.561523,-00000.073242,-00000.502930,00000.004883,-00000.009766,00000.029297
0000000001438,00002.016602,00001.689453,00002.490234,00002.534180,00002.817383,00002.895508,00002.709961,00003.173828,00002.197266,00001.806641,-00000.541992,-00000.063477,-00000.493164,00000.009766,-00000.014648,00000.019531
0000000001439,00002.021484,00001.684570,00002.495117,00002.539063,00002.817383,00002.905273,00002.705078,00003.178711,00002.197266,00001.811523,-00000.532227,-00000.058594,-00000.498047,00000.009766,-00000.029297,00000.014648
0000000001440,00002.016602,00001.689453,00002.485352,00002.539063,00002.812500,00002.905273,00002.709961,00003.173828,00002.202148,00001.811523,-00000.517578,-00000.058594,-00000.507813,00000.004883,-00000.039063,00000.019531
0000000001441,00002.021484,00001.684570,00002.495117,00002.543945,00002.812500,00002.905273,00002.705078,00003.173828,00002.207031,00001.816406,-00000.478516,-00000.058594,-00000.512695,00000.000000,-00000.034180,00000.019531
0000000001442,00002.021484,00001.684570,00002.485352,00002.573242,00002.817383,00002.900391,00002.709961,00003.173828,00002.211914,00001.821289,-00000.444336,-00000.058594,-00000.517578,00000.000000,-00000.019531,00000.019531
0000000001443,00002.021484,00001.679688,00002.490234,00002.617188,00002.812500,00002.905273,00002.709961,00003.173828,00002.207031,00001.816406,-00000.405273,-00000.058594,-00000.522461,00000.004883,-00000.014648,00000.019531
0000000001444,00002.026367,00001.669922,00002.495117,00002.636719,00002.817383,00002.905273,00002.709961,00003.183594,00002.207031,00001.816406,-00000.380859,-00000.058594,-00000.527344,00000.000000,00000.000000,00000.019531
0000000001445,00002.026367,00001.669922,00002.490234,00002.656250,00002.822266,00002.905273,00002.714844,00003.178711,00002.211914,00001.816406,-00000.361328,-00000.063477,-00000.537109,-00000.004883,00000.009766,00000.024414
0000000001446,00002.031250,00001.665039,00002.495117,00002.661133,00002.822266,00002.900391,00002.709961,00003.183594,00002.211914,00001.816406,-00000.346680,-00000.063477,-00000.537109,-00000.004883,00000.009766,00000.029297
0000000001447,00002.031250,00001.669922,00002.490234,00002.666016,00002.817383,00002.910156,00002.714844,00003.183594,00002.211914,00001.816406,-00000.341797,-00000.063477,-00000.537109,-00000.004883,00000.009766,00000.024414
0000000001448,00002.026367,00001.665039,00002.495117,00002.651367,00002.817383,00002.905273,00002.709961,00003.178711,00002.216797,00001.816406,-00000.332031,-00000.053711,-00000.527344,-00000.004883,00000.004883,00000.019531
0000000001449,00002.026367,00001.660156,00002.495117,00002.651367,00002.817383,00002.905273,00002.709961,00003.183594,00002.216797,00001.821289,-00000.327148,-00000.053711,-00000.527344,00000.000000,00000.009766,00000.009766
0000000001450,00002.026367,00001.665039,00002.490234,00002.656250,00002.817383,00002.905273,00002.714844,00003.178711,00002.221680,00001.821289,-00000.327148,-00000.053711,-00000.527344,00000.000000,00000.004883,00000.009766
0000000001451,00002.026367,00001.665039,00002.495117,00002.641602,00002.822266,00002.910156,00002.714844,00003.178711,00002.221680,00001.835938,-00000.322266,-00000.058594,-00000.532227,-00000.004883,00000.000000,00000.009766
0000000001452,00002.026367,00001.665039,00002.490234,00002.631836,00002.822266,00002.910156,00002.714844,00003.178711,00002.221680,00001.845703,-00000.317383,-00000.063477,-00000.537109,-00000.009766,-00000.004883,00000.009766
0000000001453,00002.036133,00001.660156,00002.490234,00002.612305,00002.812500,00002.915039,00002.709961,00003.178711,00002.216797,00001.840820,-00000.302734,-00000.063477,-00000.541992,-00000.009766,-00000.009766,00000.004883
0000000001454,00002.036133,00001.660156,00002.495117,00002.597656,00002.822266,00002.910156,00002.709961,00003.178711,00002.216797,00001.826172,-00000.297852,-00000.068359,-00000.546875,-00000.009766,-00000.004883,00000.000000
0000000001455,00002.036133,00001.655273,00002.490234,00002.592773,00002.812500,00002.915039,00002.705078,00003.178711,00002.216797,00001.821289,-00000.292969,-00000.068359,-00000.546875,-00000.004883,00000.009766,-00000.004883
0000000001456,00002.036133,00001.655273,00002.495117,00002.592773,00002.817383,00002.910156,00002.709961,00003.178711,00002.216797,00001.821289,-00000.292969,-00000.068359,-00000.546875,-00000.004883,00000.014648,00000.000000
0000000001457,00002.031250,00001.645508,00002.495117,00002.578125,00002.817383,00002.910156,00002.705078,00003.178711,00002.211914,00001.816406,-00000.292969,-00000.068359,-00000.551758,-00000.009766,00000.009766,00000.004883
0000000001458,00002.031250,00001.645508,00002.490234,00002.568359,00002.812500,00002.910156,00002.705078,00003.173828,00002.211914,00001.816406,-00000.297852,-00000.068359,-00000.551758,-00000.014648,00000.000000,00000.004883
0000000001459,00002.036133,00001.640625,00002.495117,00002.558594,00002.812500,00002.915039,00002.709961,00003.178711,00002.211914,00001.816406,-00000.297852,-00000.068359,-00000.551758,-00000.014648,-00000.009766,00000.004883
0000000001460,00002.031250,00001.640625,00002.490234,00002.553711,00002.817383,00002.910156,00002.709961,00003.168945,00002.211914,00001.816406,-00000.307617,-00000.073242,-00000.551758,-00000.019531,-00000.009766,00000.000000
0000000001461,00002.031250,00001.635742,00002.490234,00002.553711,00002.807617,00002.910156,00002.709961,00003.173828,00002.211914,00001.816406,-00000.302734,-00000.068359,-00000.546875,-00000.009766,-00000.004883,-00000.004883
0000000001462,00002.031250,00001.635742,00002.490234,00002.553711,00002.817383,00002.910156,00002.714844,00003.173828,00002.216797,00001.821289,-00000.302734,-00000.063477,-00000.541992,-00000.009766,00000.000000,-00000.009766
0000000001463,00002.031250,00001.635742,00002.490234,00002.548828,00002.817383,00002.910156,00002.709961,00003.173828,00002.207031,00001.821289,-00000.302734,-00000.063477,-00000.541992,-00000.009766,-00000.004883,-00000.009766
0000000001464,00002.031250,00001.640625,00002.485352,00002.558594,00002.817383,00002.910156,00002.709961,00003.173828,00002.211914,00001.816406,-00000.302734,-00000.068359,-00000.541992,-00000.009766,-00000.004883,-00000.014648
0000000001465,00002.031250,00001.630859,00002.495117,00002.558594,00002.812500,00002.910156,00002.705078,00003.173828,00002.207031,00001.816406,-00000.302734,-00000.068359,-00000.541992,-00000.009766,-00000.004883,-00000.019531
0000000001466,00002.036133,00001.635742,00002.495117,00002.558594,00002.812500,00002.915039,00002.709961,00003.178711,00002.211914,00001.821289,-00000.302734,-00000.068359,-00000.546875,-00000.009766,00000.000000,-00000.019531
0000000001467,00002.031250,00001.630859,00002.490234,00002.558594,00002.807617,00002.910156,00002.705078,00003.168945,00002.216797,00001.816406,-00000.302734,-00000.068359,-00000.541992,-00000.004883,00000.004883,-00000.019531
0000000001468,00002.036133,00001.630859,00002.490234,00002.553711,00002.807617,00002.910156,00002.700195,00003.173828,00002.211914,00001.816406,-00000.302734,-00000.068359,-00000.541992,-00000.004883,00000.000000,-00000.019531
0000000001469,00002.026367,00001.630859,00002.490234,00002.548828,00002.812500,00002.905273,00002.709961,00003.168945,00002.216797,00001.816406,-00000.302734,-00000.068359,-00000.537109,-00000.004883,-00000.009766,-00000.019531
0000000001470,00002.036133,00001.630859,00002.490234,00002.558594,00002.807617,00002.910156,00002.705078,00003.173828,00002.216797,00001.821289,-00000.307617,-00000.068359,-00000.537109,00000.000000,00000.000000,-00000.024414
0000000001471,00002.031250,00001.630859,00002.495117,00002.553711,00002.812500,00002.910156,00002.709961,00003.173828,00002.216797,00001.821289,-00000.312500,-00000.068359,-00000.532227,00000.004883,00000.004883,-00000.024414
0000000001472,00002.031250,00001.635742,00002.490234,00002.558594,00002.812500,00002.910156,00002.709961,00003.168945,00002.221680,00001.821289,-00000.312500,-00000.068359,-00000.532227,00000.004883,00000.004883,-00000.024414
0000000001473,00002.036133,00001.630859,00002.495117,00002.553711,00002.812500,00002.910156,00002.705078,00003.173828,00002.216797,00001.821289,-00000.317383,-00000.073242,-00000.532227,00000.000000,-00000.004883,-00000.019531
0000000001474,00002.036133,00001.625977,00002.495117,00002.558594,00002.807617,00002.910156,00002.705078,00003.168945,00002.211914,00001.826172,-00000.317383,-00000.068359,-00000.527344,00000.004883,00000.004883,-00000.024414
0000000001475,00002.031250,00001.630859,00002.490234,00002.558594,00002.812500,00002.910156,00002.709961,00003.168945,00002.216797,00001.826172,-00000.317383,-00000.068359,-00000.527344,00000.004883,00000.009766,-00000.024414
0000000001476,00002.036133,00001.625977,00002.490234,00002.553711,00002.807617,00002.910156,00002.705078,00003.168945,00002.211914,00001.821289,-00000.317383,-00000.068359,-00000.522461,00000.009766,00000.004883,-00000.024414
0000000001477,00002.036133,00001.625977,00002.490234,00002.553711,00002.807617,00002.910156,00002.705078,00003.168945,00002.211914,00001.826172,-00000.317383,-00000.073242,-00000.522461,00000.009766,00000.004883,-00000.019531
0000000001478,00002.031250,00001.625977,00002.490234,00002.553711,00002.812500,00002.910156,00002.709961,00003.168945,00002.231445,00001.826172,-00000.322266,-00000.073242,-00000.527344,00000.009766,00000.009766,-00000.024414
0000000001479,00002.036133,00001.630859,00002.490234,00002.558594,00002.807617,00002.910156,00002.709961,00003.164063,00002.236328,00001.831055,-00000.327148,-00000.073242,-00000.527344,00000.009766,00000.009766,-00000.019531
0000000001480,00002.036133,00001.630859,00002.490234,00002.563477,00002.812500,00002.910156,00002.709961,00003.168945,00002.236328,00001.835938,-00000.327148,-00000.073242,-00000.522461,00000.009766,00000.004883,-00000.019531
0000000001481,00002.041016,00001.625977,00002.495117,00002.553711,00002.817383,00002.919922,00002.705078,00003.168945,00002.231445,00001.845703,-00000.332031,-00000.078125,-00000.527344,00000.000000,-00000.004883,-00000.024414
0000000001482,00002.055664,00001.625977,00002.485352,00002.578125,00002.817383,00002.924805,00002.709961,00003.168945,00002.241211,00001.889648,-00000.332031,-00000.083008,-00000.522461,00000.000000,-00000.009766,-00000.024414
0000000001483,00002.060547,00001.625977,00002.490234,00002.597656,00002.817383,00002.924805,00002.709961,00003.173828,00002.241211,00001.889648,-00000.332031,-00000.087891,-00000.527344,00000.004883,-00000.009766,-00000.024414
0000000001484,00002.050781,00001.625977,00002.490234,00002.578125,00002.817383,00002.924805,00002.709961,00003.168945,00002.241211,00001.884766,-00000.332031,-00000.087891,-00000.532227,00000.000000,-00000.004883,-00000.024414
0000000001485,00002.060547,00001.625977,00002.495117,00002.573242,00002.817383,00002.929688,00002.714844,00003.173828,00002.241211,00001.884766,-00000.332031,-00000.087891,-00000.532227,00000.000000,-00000.004883,-00000.019531
0000000001486,00002.050781,00001.625977,00002.490234,00002.563477,00002.817383,00002.915039,00002.709961,00003.164063,00002.236328,00001.865234,-00000.332031,-00000.083008,-00000.527344,00000.004883,-00000.009766,-00000.024414
0000000001487,00002.055664,00001.621094,00002.490234,00002.563477,00002.812500,00002.910156,00002.705078,00003.173828,00002.236328,00001.850586,-00000.336914,-00000.083008,-00000.532227,00000.000000,-00000.014648,-00000.029297
0000000001488,00002.050781,00001.621094,00002.485352,00002.563477,00002.812500,00002.919922,00002.709961,00003.168945,00002.236328,00001.845703,-00000.336914,-00000.087891,-00000.532227,00000.000000,-00000.014648,-00000.024414
0000000001489,00002.055664,00001.621094,00002.490234,00002.558594,00002.812500,00002.919922,00002.705078,00003.168945,00002.236328,00001.831055,-00000.336914,-00000.087891,-00000.537109,00000.000000,-00000.009766,-00000.019531
0000000001490,00002.050781,00001.621094,00002.485352,00002.563477,00002.817383,00002.915039,00002.714844,00003.164063,00002.241211,00001.831055,-00000.332031,-00000.087891,-00000.537109,00000.000000,-00000.004883,-00000.024414
0000000001491,00002.050781,00001.616211,00002.485352,00002.553711,00002.812500,00002.905273,00002.705078,00003.164063,00002.231445,00001.835938,-00000.327148,-00000.087891,-00000.537109,00000.000000,-00000.009766,-00000.024414
0000000001492,00002.050781,00001.621094,00002.490234,00002.558594,00002.817383,00002.910156,00002.714844,00003.164063,00002.241211,00001.831055,-00000.327148,-00000.087891,-00000.537109,-00000.004883,-00000.014648,-00000.024414
0000000001493,00002.050781,00001.616211,00002.490234,00002.553711,00002.812500,00002.910156,00002.705078,00003.164063,00002.226563,00001.831055,-00000.327148,-00000.087891,-00000.537109,00000.000000,-00000.014648,-00000.019531
0000000001494,00002.045898,00001.621094,00002.490234,00002.563477,00002.817383,00002.915039,00002.714844,00003.168945,00002.241211,00001.831055,-00000.332031,-00000.087891,-00000.532227,00000.000000,-00000.014648,-00000.019531
0000000001495,00002.045898,00001.616211,00002.490234,00002.553711,00002.817383,00002.910156,00002.709961,00003.164063,00002.236328,00001.831055,-00000.327148,-00000.087891,-00000.541992,-00000.004883,-00000.014648,-00000.014648
0000000001496,00002.050781,00001.616211,00002.495117,00002.553711,00002.817383,00002.919922,00002.709961,00003.168945,00002.236328,00001.831055,-00000.332031,-00000.087891,-00000.541992,-00000.004883,-00000.019531,-00000.014648
0000000001497,00002.050781,00001.616211,00002.495117,00002.558594,00002.812500,00002.924805,00002.709961,00003.173828,00002.231445,00001.826172,-00000.332031,-00000.092773,-00000.541992,-00000.004883,-00000.009766,-00000.014648
0000000001498,00002.050781,00001.621094,00002.490234,00002.563477,00002.812500,00002.919922,00002.714844,00003.168945,00002.241211,00001.826172,-00000.332031,-00000.087891,-00000.537109,-00000.004883,-00000.004883,-00000.009766
0000000001499,00002.055664,00001.616211,00002.490234,00002.563477,00002.812500,00002.919922,00002.709961,00003.168945,00002.231445,00001.831055,-00000.332031,-00000.092773,-00000.541992,-00000.004883,-00000.009766,-00000.014648
0000000001500,00002.050781,00001.621094,00002.490234,00002.563477,00002.817383,00002.919922,00002.714844,00003.164063,00002.241211,00001.831055,-00000.332031,-00000.087891,-00000.541992,-00000.004883,-00000.009766,-00000.014648
0000000001501,00002.045898,00001.621094,00002.485352,00002.563477,00002.812500,00002.919922,00002.709961,00003.164063,00002.241211,00001.826172,-00000.332031,-00000.087891,-00000.541992,-00000.004883,-00000.014648,-00000.009766
0000000001502,00002.050781,00001.616211,00002.485352,00002.568359,00002.807617,00002.919922,00002.705078,00003.173828,00002.236328,00001.826172,-00000.332031,-00000.087891,-00000.537109,-00000.004883,-00000.019531,-00000.014648
0000000001503,00002.045898,00001.621094,00002.485352,00002.587891,00002.812500,00002.910156,00002.709961,00003.164063,00002.236328,00001.826172,-00000.336914,-00000.092773,-00000.537109,00000.000000,-00000.014648,-00000.014648
0000000001504,00002.050781,00001.621094,00002.485352,00002.602539,00002.812500,00002.919922,00002.709961,00003.173828,00002.241211,00001.826172,-00000.336914,-00000.087891,-00000.532227,00000.000000,-00000.009766,-00000.014648
0000000001505,00002.050781,00001.616211,00002.490234,00002.597656,00002.812500,00002.919922,00002.709961,00003.173828,00002.236328,00001.831055,-00000.336914,-00000.087891,-00000.532227,-00000.004883,-00000.004883,-00000.014648
0000000001506,00002.045898,00001.621094,00002.490234,00002.597656,00002.817383,00002.915039,00002.714844,00003.168945,00002.236328,00001.826172,-00000.336914,-00000.087891,-00000.532227,00000.000000,-00000.009766,-00000.009766
0000000001507,00002.045898,00001.621094,00002.485352,00002.602539,00002.812500,00002.915039,00002.709961,00003.168945,00002.236328,00001.831055,-00000.341797,-00000.087891,-00000.527344,00000.000000,-00000.009766,-00000.014648
0000000001508,00002.050781,00001.616211,00002.490234,00002.607422,00002.812500,00002.919922,00002.709961,00003.173828,00002.236328,00001.845703,-00000.341797,-00000.083008,-00000.522461,00000.000000,-00000.014648,-00000.014648
0000000001509,00002.055664,00001.616211,00002.490234,00002.607422,00002.822266,00002.924805,00002.709961,00003.178711,00002.241211,00001.840820,-00000.356445,-00000.087891,-00000.527344,-00000.004883,-00000.039063,-00000.009766
0000000001510,00002.055664,00001.621094,00002.485352,00002.617188,00002.817383,00002.924805,00002.714844,00003.173828,00002.246094,00001.850586,-00000.356445,-00000.087891,-00000.527344,00000.000000,-00000.039063,-00000.004883
0000000001511,00002.055664,00001.621094,00002.490234,00002.607422,00002.822266,00002.915039,00002.714844,00003.168945,00002.241211,00001.879883,-00000.366211,-00000.087891,-00000.522461,00000.000000,-00000.039063,-00000.009766
0000000001512,00002.060547,00001.621094,00002.490234,00002.612305,00002.822266,00002.919922,00002.709961,00003.173828,00002.236328,00001.884766,-00000.371094,-00000.087891,-00000.522461,00000.000000,-00000.048828,-00000.004883
0000000001513,00002.065430,00001.625977,00002.485352,00002.636719,00002.822266,00002.919922,00002.714844,00003.168945,00002.246094,00001.879883,-00000.371094,-00000.087891,-00000.517578,00000.000000,-00000.043945,-00000.014648
0000000001514,00002.065430,00001.621094,00002.490234,00002.656250,00002.817383,00002.919922,00002.709961,00003.173828,00002.236328,00001.879883,-00000.375977,-00000.087891,-00000.522461,00000.000000,-00000.034180,-00000.014648
0000000001515,00002.065430,00001.621094,00002.485352,00002.651367,00002.822266,00002.910156,00002.714844,00003.168945,00002.241211,00001.855469,-00000.380859,-00000.092773,-00000.517578,00000.000000,-00000.029297,-00000.029297
0000000001516,00002.070313,00001.621094,00002.490234,00002.641602,00002.822266,00002.919922,00002.714844,00003.178711,00002.241211,00001.845703,-00000.380859,-00000.092773,-00000.522461,-00000.004883,-00000.024414,-00000.024414
0000000001517,00002.065430,00001.621094,00002.490234,00002.617188,00002.822266,00002.910156,00002.709961,00003.173828,00002.236328,00001.840820,-00000.380859,-00000.092773,-00000.522461,00000.000000,-00000.019531,-00000.029297
0000000001518,00002.065430,00001.616211,00002.490234,00002.607422,00002.822266,00002.915039,00002.709961,00003.178711,00002.236328,00001.835938,-00000.380859,-00000.087891,-00000.522461,-00000.004883,-00000.029297,-00000.029297
0000000001519,00002.065430,00001.616211,00002.490234,00002.583008,00002.817383,00002.915039,00002.709961,00003.178711,00002.236328,00001.831055,-00000.385742,-00000.087891,-00000.522461,-00000.004883,-00000.034180,-00000.034180
0000000001520,00002.065430,00001.616211,00002.490234,00002.573242,00002.817383,00002.915039,00002.709961,00003.178711,00002.236328,00001.826172,-00000.380859,-00000.087891,-00000.522461,-00000.004883,-00000.029297,-00000.029297
0000000001521,00002.060547,00001.616211,00002.485352,00002.568359,00002.812500,00002.910156,00002.714844,00003.168945,00002.241211,00001.821289,-00000.380859,-00000.087891,-00000.527344,-00000.004883,-00000.029297,-00000.029297
0000000001522,00002.065430,00001.616211,00002.490234,00002.573242,00002.812500,00002.915039,00002.709961,00003.173828,00002.231445,00001.826172,-00000.380859,-00000.087891,-00000.527344,-00000.004883,-00000.029297,-00000.029297
0000000001523,00002.060547,00001.616211,00002.490234,00002.573242,00002.812500,00002.910156,00002.705078,00003.168945,00002.231445,00001.831055,-00000.385742,-00000.087891,-00000.522461,-00000.004883,-00000.029297,-00000.029297
0000000001524,00002.065430,00001.621094,00002.490234,00002.583008,00002.822266,00002.915039,00002.714844,00003.173828,00002.241211,00001.831055,-00000.380859,-00000.087891,-00000.522461,-00000.004883,-00000.034180,-00000.029297
0000000001525,00002.055664,00001.616211,00002.485352,00002.578125,00002.812500,00002.905273,00002.714844,00003.168945,00002.236328,00001.826172,-00000.385742,-00000.087891,-00000.522461,-00000.004883,-00000.029297,-00000.029297
0000000001526,00002.060547,00001.616211,00002.490234,00002.578125,00002.812500,00002.915039,00002.709961,00003.173828,00002.236328,00001.826172,-00000.380859,-00000.087891,-00000.522461,-00000.004883,-00000.034180,-00000.029297
0000000001527,00002.060547,00001.616211,00002.485352,00002.573242,00002.812500,00002.915039,00002.709961,00003.168945,00002.236328,00001.835938,-00000.375977,-00000.087891,-00000.527344,-00000.004883,-00000.029297,-00000.029297
0000000001528,00002.060547,00001.616211,00002.490234,00002.568359,00002.822266,00002.919922,00002.709961,00003.178711,00002.236328,00001.835938,-00000.375977,-00000.087891,-00000.527344,-00000.004883,-00000.029297,-00000.024414
0000000001529,00002.060547,00001.611328,00002.490234,00002.563477,00002.817383,00002.919922,00002.709961,00003.173828,00002.236328,00001.835938,-00000.380859,-00000.083008,-00000.522461,-00000.004883,-00000.019531,-00000.024414
0000000001530,00002.060547,00001.616211,00002.490234,00002.563477,00002.812500,00002.919922,00002.709961,00003.168945,00002.236328,00001.831055,-00000.380859,-00000.083008,-00000.522461,-00000.004883,-00000.019531,-00000.019531
0000000001531,00002.055664,00001.616211,00002.490234,00002.553711,00002.817383,00002.919922,00002.709961,00003.173828,00002.236328,00001.835938,-00000.380859,-00000.087891,-00000.532227,-00000.009766,-00000.019531,-00000.019531
0000000001532,00002.055664,00001.616211,00002.485352,00002.558594,00002.807617,00002.919922,00002.709961,00003.168945,00002.236328,00001.826172,-00000.375977,-00000.087891,-00000.532227,-00000.009766,-00000.019531,-00000.019531
0000000001533,00002.055664,00001.616211,00002.485352,00002.563477,00002.812500,00002.919922,00002.709961,00003.164063,00002.236328,00001.831055,-00000.371094,-00000.087891,-00000.527344,-00000.004883,-00000.009766,-00000.019531
0000000001534,00002.055664,00001.616211,00002.490234,00002.558594,00002.817383,00002.919922,00002.709961,00003.173828,00002.236328,00001.835938,-00000.375977,-00000.087891,-00000.527344,-00000.004883,-00000.014648,-00000.019531
0000000001535,00002.060547,00001.616211,00002.490234,00002.563477,00002.817383,00002.919922,00002.709961,00003.173828,00002.236328,00001.831055,-00000.375977,-00000.087891,-00000.532227,-00000.009766,-00000.014648,-00000.019531
0000000001536,00002.060547,00001.616211,00002.490234,00002.558594,00002.817383,00002.919922,00002.709961,00003.168945,00002.236328,00001.840820,-00000.366211,-00000.087891,-00000.532227,-00000.009766,-00000.024414,-00000.014648
0000000001537,00002.055664,00001.616211,00002.485352,00002.568359,00002.812500,00002.915039,00002.705078,00003.164063,00002.236328,00001.840820,-00000.366211,-00000.087891,-00000.537109,-00000.009766,-00000.019531,-00000.019531
0000000001538,00002.060547,00001.616211,00002.485352,00002.573242,00002.812500,00002.919922,00002.705078,00003.168945,00002.236328,00001.840820,-00000.361328,-00000.087891,-00000.532227,-00000.009766,-00000.019531,-00000.019531
0000000001539,00002.060547,00001.616211,00002.490234,00002.578125,00002.812500,00002.924805,00002.709961,00003.168945,00002.241211,00001.845703,-00000.361328,-00000.087891,-00000.532227,-00000.009766,-00000.024414,-00000.014648
0000000001540,00002.055664,00001.616211,00002.495117,00002.573242,00002.822266,00002.919922,00002.714844,00003.173828,00002.241211,00001.840820,-00000.366211,-00000.087891,-00000.537109,-00000.009766,-00000.029297,-00000.009766
0000000001541,00002.060547,00001.616211,00002.490234,00002.592773,00002.817383,00002.919922,00002.709961,00003.173828,00002.236328,00001.845703,-00000.361328,-00000.083008,-00000.532227,-00000.009766,-00000.029297,-00000.014648
0000000001542,00002.060547,00001.616211,00002.495117,00002.602539,00002.817383,00002.919922,00002.709961,00003.168945,00002.241211,00001.845703,-00000.356445,-00000.083008,-00000.527344,-00000.004883,-00000.019531,-00000.019531
0000000001543,00002.060547,00001.616211,00002.500000,00002.597656,00002.817383,00002.919922,00002.709961,00003.173828,00002.236328,00001.845703,-00000.356445,-00000.087891,-00000.537109,-00000.014648,-00000.019531,-00000.019531
0000000001544,00002.060547,00001.616211,00002.495117,00002.587891,00002.817383,00002.919922,00002.709961,00003.168945,00002.241211,00001.845703,-00000.351563,-00000.087891,-00000.537109,-00000.009766,-00000.014648,-00000.014648
0000000001545,00002.060547,00001.621094,00002.495117,00002.592773,00002.817383,00002.915039,00002.714844,00003.168945,00002.241211,00001.845703,-00000.346680,-00000.083008,-00000.537109,-00000.004883,-00000.019531,-00000.019531
0000000001546,00002.065430,00001.616211,00002.500000,00002.597656,00002.822266,00002.924805,00002.709961,00003.173828,00002.241211,00001.845703,-00000.346680,-00000.083008,-00000.537109,-00000.009766,-00000.019531,-00000.019531
0000000001547,00002.060547,00001.621094,00002.495117,00002.597656,00002.817383,00002.915039,00002.714844,00003.168945,00002.241211,00001.840820,-00000.341797,-00000.083008,-00000.537109,-00000.009766,-00000.009766,-00000.019531
0000000001548,00002.065430,00001.616211,00002.490234,00002.597656,00002.817383,00002.924805,00002.709961,00003.173828,00002.241211,00001.840820,-00000.346680,-00000.083008,-00000.537109,-00000.009766,-00000.004883,-00000.019531
0000000001549,00002.065430,00001.616211,00002.490234,00002.597656,00002.812500,00002.919922,00002.705078,00003.168945,00002.236328,00001.835938,-00000.346680,-00000.083008,-00000.537109,-00000.004883,-00000.009766,-00000.019531
0000000001550,00002.060547,00001.621094,00002.495117,00002.583008,00002.822266,00002.919922,00002.714844,00003.173828,00002.241211,00001.840820,-00000.346680,-00000.083008,-00000.532227,-00000.004883,-00000.009766,-00000.014648
0000000001551,00002.060547,00001.611328,00002.495117,00002.578125,00002.812500,00002.919922,00002.705078,00003.173828,00002.236328,00001.831055,-00000.346680,-00000.083008,-00000.537109,-00000.004883,-00000.014648,-00000.009766
0000000001552,00002.055664,00001.616211,00002.490234,00002.573242,00002.807617,00002.915039,00002.709961,00003.168945,00002.241211,00001.826172,-00000.351563,-00000.083008,-00000.537109,-00000.004883,-00000.019531,-00000.019531
0000000001553,00002.055664,00001.616211,00002.495117,00002.568359,00002.812500,00002.910156,00002.709961,00003.168945,00002.236328,00001.826172,-00000.346680,-00000.083008,-00000.532227,-00000.004883,-00000.019531,-00000.019531
0000000001554,00002.055664,00001.616211,00002.490234,00002.578125,00002.812500,00002.915039,00002.709961,00003.168945,00002.241211,00001.826172,-00000.346680,-00000.083008,-00000.532227,-00000.004883,-00000.019531,-00000.019531
0000000001555,00002.060547,00001.616211,00002.485352,00002.578125,00002.807617,00002.910156,00002.705078,00003.168945,00002.236328,00001.821289,-00000.351563,-00000.087891,-00000.537109,-00000.004883,-00000.024414,-00000.014648
0000000001556,00002.055664,00001.616211,00002.490234,00002.592773,00002.817383,00002.915039,00002.714844,00003.168945,00002.236328,00001.831055,-00000.351563,-00000.083008,-00000.532227,-00000.004883,-00000.029297,-00000.019531
0000000001557,00002.060547,00001.611328,00002.495117,00002.587891,00002.812500,00002.915039,00002.705078,00003.173828,00002.236328,00001.826172,-00000.351563,-00000.087891,-00000.532227,-00000.004883,-00000.024414,-00000.019531
0000000001558,00002.060547,00001.616211,00002.490234,00002.578125,00002.817383,00002.915039,00002.709961,00003.168945,00002.236328,00001.826172,-00000.356445,-00000.087891,-00000.541992,-00000.014648,-00000.029297,-00000.014648
0000000001559,00002.055664,00001.616211,00002.490234,00002.578125,00002.817383,00002.919922,00002.709961,00003.164063,00002.241211,00001.826172,-00000.385742,-00000.087891,-00000.522461,-00000.004883,-00000.043945,-00000.019531
0000000001560,00002.060547,00001.621094,00002.495117,00002.568359,00002.822266,00002.915039,00002.709961,00003.168945,00002.236328,00001.831055,-00000.415039,-00000.087891,-00000.512695,-00000.004883,-00000.058594,-00000.024414
0000000001561,00002.055664,00001.625977,00002.495117,00002.568359,00002.827148,00002.910156,00002.714844,00003.173828,00002.236328,00001.821289,-00000.434570,-00000.083008,-00000.512695,-00000.004883,-00000.073242,-00000.019531
0000000001562,00002.055664,00001.625977,00002.495117,00002.568359,00002.827148,00002.915039,00002.714844,00003.173828,00002.236328,00001.826172,-00000.434570,-00000.092773,-00000.507813,-00000.004883,-00000.073242,-00000.019531
0000000001563,00002.055664,00001.625977,00002.495117,00002.568359,00002.827148,00002.915039,00002.709961,00003.178711,00002.236328,00001.821289,-00000.458984,-00000.097656,-00000.507813,00000.000000,-00000.078125,-00000.029297
0000000001564,00002.055664,00001.625977,00002.495117,00002.573242,00002.832031,00002.910156,00002.709961,00003.178711,00002.236328,00001.821289,-00000.468750,-00000.102539,-00000.502930,00000.004883,-00000.078125,-00000.029297
0000000001565,00002.055664,00001.635742,00002.490234,00002.592773,00002.841797,00002.910156,00002.714844,00003.183594,00002.241211,00001.821289,-00000.546875,-00000.102539,-00000.498047,00000.004883,-00000.097656,-00000.029297
0000000001566,00002.055664,00001.640625,00002.495117,00002.568359,00002.846680,00002.910156,00002.714844,00003.198242,00002.236328,00001.816406,-00000.639648,-00000.112305,-00000.488281,00000.004883,-00000.107422,-00000.024414
0000000001567,00002.045898,00001.650391,00002.480469,00002.553711,00002.851563,00002.910156,00002.709961,00003.188477,00002.236328,00001.816406,-00000.703125,-00000.122070,-00000.488281,00000.000000,-00000.117188,-00000.019531
0000000001568,00002.036133,00001.660156,00002.475586,00002.543945,00002.856445,00002.905273,00002.709961,00003.188477,00002.231445,00001.816406,-00000.781250,-00000.136719,-00000.488281,-00000.004883,-00000.131836,-00000.014648
0000000001569,00002.031250,00001.660156,00002.480469,00002.539063,00002.856445,00002.905273,00002.714844,00003.198242,00002.236328,00001.816406,-00000.791016,-00000.141602,-00000.493164,-00000.009766,-00000.131836,-00000.004883
0000000001570,00002.031250,00001.660156,00002.475586,00002.543945,00002.851563,00002.905273,00002.709961,00003.193359,00002.211914,00001.801758,-00000.820313,-00000.141602,-00000.493164,-00000.009766,-00000.117188,00000.000000
0000000001571,00002.026367,00001.669922,00002.475586,00002.543945,00002.856445,00002.900391,00002.714844,00003.193359,00002.211914,00001.796875,-00000.869141,-00000.136719,-00000.473633,-00000.004883,-00000.112305,-00000.014648
0000000001572,00002.021484,00001.665039,00002.475586,00002.539063,00002.856445,00002.890625,00002.709961,00003.198242,00002.187500,00001.796875,-00000.913086,-00000.146484,-00000.473633,-00000.014648,-00000.126953,00000.019531
0000000001573,00002.011719,00001.665039,00002.465820,00002.539063,00002.856445,00002.885742,00002.714844,00003.193359,00002.182617,00001.772461,-00001.010742,-00000.161133,-00000.478516,-00000.024414,-00000.131836,00000.029297
0000000001574,00002.011719,00001.665039,00002.456055,00002.519531,00002.851563,00002.880859,00002.709961,00003.188477,00002.172852,00001.757813,-00001.113281,-00000.170898,-00000.468750,-00000.019531,-00000.126953,00000.029297
0000000001575,00001.997070,00001.660156,00002.431641,00002.460938,00002.836914,00002.871094,00002.705078,00003.183594,00002.158203,00001.699219,-00001.264648,-00000.195313,-00000.454102,-00000.029297,-00000.126953,00000.004883
0000000001576,00001.982422,00001.665039,00002.416992,00002.446289,00002.836914,00002.866211,00002.709961,00003.173828,00002.158203,00001.689453,-00001.342773,-00000.205078,-00000.458984,-00000.034180,-00000.131836,00000.014648
0000000001577,00001.977539,00001.665039,00002.392578,00002.431641,00002.832031,00002.851563,00002.709961,00003.173828,00002.143555,00001.684570,-00001.459961,-00000.214844,-00000.468750,-00000.039063,-00000.136719,00000.043945
0000000001578,00001.826172,00001.660156,00002.382813,00002.436523,00002.812500,00002.783203,00002.705078,00003.164063,00002.133789,00001.630859,-00001.494141,-00000.209961,-00000.454102,-00000.024414,-00000.097656,00000.058594
0000000001579,00001.811523,00001.655273,00002.387695,00002.426758,00002.802734,00002.758789,00002.705078,00003.164063,00002.124023,00001.582031,-00001.562500,-00000.219727,-00000.444336,-00000.019531,-00000.073242,00000.053711
0000000001580,00001.787109,00001.655273,00002.382813,00002.412109,00002.802734,00002.714844,00002.705078,00003.159180,00002.119141,00001.547852,-00001.679688,-00000.219727,-00000.424805,-00000.009766,-00000.058594,00000.053711
0000000001581,00001.757813,00001.669922,00002.348633,00002.319336,00002.792969,00002.714844,00002.690430,00003.149414,00002.114258,00001.513672,-00001.899414,-00000.209961,-00000.410156,-00000.014648,-00000.068359,00000.009766
0000000001582,00001.752930,00001.674805,00002.338867,00002.250977,00002.792969,00002.709961,00002.695313,00003.139648,00002.114258,00001.489258,-00002.026367,-00000.200195,-00000.400391,-00000.014648,-00000.087891,00000.000000
0000000001583,00001.748047,00001.674805,00002.338867,00002.241211,00002.792969,00002.705078,00002.700195,00003.134766,00002.104492,00001.484375,-00002.055664,-00000.185547,-00000.390625,-00000.004883,-00000.073242,00000.024414
0000000001584,00001.723633,00001.669922,00002.358398,00002.236328,00002.783203,00002.695313,00002.695313,00003.139648,00002.094727,00001.484375,-00002.041016,-00000.170898,-00000.375977,00000.009766,-00000.053711,00000.078125
0000000001585,00001.723633,00001.665039,00002.338867,00002.207031,00002.768555,00002.690430,00002.690430,00003.129883,00002.084961,00001.459961,-00002.114258,-00000.175781,-00000.375977,00000.014648,-00000.048828,00000.078125
0000000001586,00001.713867,00001.660156,00002.329102,00002.109375,00002.753906,00002.690430,00002.690430,00003.129883,00002.070313,00001.459961,-00002.265625,-00000.185547,-00000.380859,00000.000000,-00000.058594,00000.039063
0000000001587,00001.704102,00001.660156,00002.329102,00002.070313,00002.744141,00002.680664,00002.685547,00003.125000,00002.050781,00001.455078,-00002.333984,-00000.205078,-00000.380859,-00000.014648,-00000.078125,00000.043945
0000000001588,00001.704102,00001.655273,00002.329102,00002.055664,00002.734375,00002.685547,00002.685547,00003.129883,00002.041016,00001.445313,-00002.377930,-00000.209961,-00000.385742,-00000.014648,-00000.073242,00000.058594
0000000001589,00001.704102,00001.665039,00002.319336,00002.041016,00002.734375,00002.685547,00002.685547,00003.125000,00002.031250,00001.411133,-00002.451172,-00000.200195,-00000.371094,-00000.009766,-00000.048828,00000.043945
0000000001590,00001.704102,00001.665039,00002.314453,00002.021484,00002.729492,00002.680664,00002.680664,00003.125000,00002.016602,00001.401367,-00002.485352,-00000.214844,-00000.380859,-00000.019531,-00000.048828,00000.039063
0000000001591,00001.694336,00001.665039,00002.314453,00001.997070,00002.734375,00002.675781,00002.680664,00003.125000,00002.006836,00001.381836,-00002.543945,-00000.234375,-00000.385742,-00000.024414,-00000.053711,00000.024414
0000000001592,00001.674805,00001.674805,00002.299805,00001.967773,00002.739258,00002.675781,00002.685547,00003.115234,00002.001953,00001.367188,-00002.685547,-00000.258789,-00000.346680,-00000.024414,-00000.034180,-00000.004883
0000000001593,00001.669922,00001.679688,00002.285156,00001.958008,00002.749023,00002.675781,00002.680664,00003.120117,00001.997070,00001.367188,-00002.783203,-00000.288086,-00000.327148,-00000.034180,-00000.048828,-00000.024414
0000000001594,00001.660156,00001.704102,00002.280273,00001.958008,00002.758789,00002.670898,00002.680664,00003.115234,00001.997070,00001.357422,-00002.861328,-00000.307617,-00000.327148,-00000.043945,-00000.063477,-00000.048828
0000000001595,00001.665039,00001.713867,00002.275391,00001.953125,00002.753906,00002.670898,00002.675781,00003.115234,00002.001953,00001.352539,-00002.900391,-00000.322266,-00000.327148,-00000.043945,-00000.058594,-00000.078125
0000000001596,00001.660156,00001.718750,00002.275391,00001.953125,00002.749023,00002.666016,00002.680664,00003.110352,00002.006836,00001.352539,-00002.915039,-00000.312500,-00000.322266,-00000.043945,-00000.043945,-00000.107422
0000000001597,00001.655273,00001.713867,00002.275391,00001.948242,00002.749023,00002.670898,00002.675781,00003.115234,00002.006836,00001.347656,-00002.929688,-00000.297852,-00000.312500,-00000.034180,-00000.019531,-00000.107422
0000000001598,00001.655273,00001.723633,00002.270508,00001.943359,00002.753906,00002.666016,00002.675781,00003.115234,00002.001953,00001.333008,-00003.022461,-00000.327148,-00000.292969,-00000.024414,-00000.004883,-00000.117188
0000000001599,00001.650391,00001.728516,00002.265625,00001.928711,00002.749023,00002.666016,00002.675781,00003.110352,00001.997070,00001.328125,-00003.125000,-00000.356445,-00000.292969,-00000.034180,00000.000000,-00000.146484
0000000001600,00001.645508,00001.733398,00002.241211,00001.918945,00002.773438,00002.666016,00002.670898,00003.110352,00001.992188,00001.323242,-00003.168945,-00000.390625,-00000.297852,-00000.048828,-00000.019531,-00000.190430
0000000001601,00001.616211,00001.738281,00002.241211,00001.914063,00002.788086,00002.661133,00002.670898,00003.110352,00001.997070,00001.328125,-00003.168945,-00000.400391,-00000.307617,-00000.063477,-00000.043945,-00000.195313
0000000001602,00001.616211,00001.738281,00002.231445,00001.918945,00002.773438,00002.661133,00002.675781,00003.105469,00002.001953,00001.323242,-00003.164063,-00000.400391,-00000.312500,-00000.063477,-00000.039063,-00000.175781
0000000001603,00001.640625,00001.748047,00002.216797,00001.914063,00002.753906,00002.666016,00002.675781,00003.110352,00002.001953,00001.303711,-00003.188477,-00000.410156,-00000.307617,-00000.058594,00000.000000,-00000.161133
0000000001604,00001.640625,00001.748047,00002.216797,00001.904297,00002.749023,00002.661133,00002.666016,00003.110352,00001.997070,00001.289063,-00003.217773,-00000.405273,-00000.288086,-00000.043945,00000.024414,-00000.166016
0000000001605,00001.640625,00001.748047,00002.207031,00001.904297,00002.744141,00002.661133,00002.661133,00003.110352,00001.997070,00001.289063,-00003.217773,-00000.395508,-00000.283203,-00000.043945,00000.039063,-00000.166016
0000000001606,00001.645508,00001.748047,00002.207031,00001.909180,00002.739258,00002.666016,00002.661133,00003.105469,00001.992188,00001.289063,-00003.168945,-00000.390625,-00000.292969,-00000.048828,00000.029297,-00000.141602
0000000001607,00001.640625,00001.748047,00002.207031,00001.909180,00002.739258,00002.661133,00002.666016,00003.105469,00001.997070,00001.284180,-00003.154297,-00000.395508,-00000.302734,-00000.053711,00000.009766,-00000.126953
0000000001608,00001.640625,00001.748047,00002.207031,00001.904297,00002.744141,00002.661133,00002.666016,00003.105469,00001.992188,00001.284180,-00003.178711,-00000.415039,-00000.302734,-00000.053711,00000.014648,-00000.117188
0000000001609,00001.611328,00001.748047,00002.202148,00001.904297,00002.744141,00002.661133,00002.661133,00003.110352,00001.992188,00001.284180,-00003.217773,-00000.410156,-00000.278320,-00000.043945,00000.014648,-00000.122070
