0000000000739,00002.383803,00001.654483,00001.812893,00003.503881,00002.641208,00002.755057,00002.627157,00003.088637,00002.430633,00002.378574,-00000.475791,-00000.025787,-00000.502639,-00000.012588,-00000.087328,-00000.292495
0000000000740,00002.384259,00001.657090,00001.813823,00003.502765,00002.641878,00002.755158,00002.627906,00003.088961,00002.430288,00002.378777,-00000.483126,-00000.028697,-00000.505595,-00000.014217,-00000.084759,-00000.289897
0000000000741,00002.386320,00001.659877,00001.815047,00003.501648,00002.642454,00002.755699,00002.628678,00003.089378,00002.430177,00002.378966,-00000.491023,-00000.032474,-00000.509525,-00000.016158,-00000.081235,-00000.286731
0000000000742,00002.388522,00001.663547,00001.816565,00003.499972,00002.643024,00002.756148,00002.630042,00003.089654,00002.430609,00002.379139,-00000.499444,-00000.036402,-00000.513493,-00000.017908,-00000.077235,-00000.283432
0000000000743,00002.390639,00001.667371,00001.818333,00003.498658,00002.643877,00002.756608,00002.631424,00003.090009,00002.431239,00002.379299,-00000.507617,-00000.039980,-00000.517201,-00000.019560,-00000.073509,-00000.280736
0000000000744,00002.392877,00001.670496,00001.819988,00003.497232,00002.644363,00002.756990,00002.632222,00003.090606,00002.431608,00002.379810,-00000.515512,-00000.043324,-00000.520579,-00000.021049,-00000.070466,-00000.278290
0000000000745,00002.395042,00001.674114,00001.821493,00003.494662,00002.645088,00002.757382,00002.633036,00003.091272,00002.431782,00002.380309,-00000.522833,-00000.046370,-00000.524098,-00000.022456,-00000.068383,-00000.275633
0000000000746,00002.396947,00001.677499,00001.822902,00003.492722,00002.645502,00002.757707,00002.633715,00003.091418,00002.432458,00002.380381,-00000.529916,-00000.049579,-00000.527337,-00000.024087,-00000.066155,-00000.272825
0000000000747,00002.398427,00001.680942,00001.824183,00003.490172,00002.645757,00002.757678,00002.634408,00003.091621,00002.432969,00002.380443,-00000.536874,-00000.052898,-00000.531058,-00000.025647,-00000.063656,-00000.269837
0000000000748,00002.400048,00001.684550,00001.825382,00003.487432,00002.646109,00002.757955,00002.634987,00003.092108,00002.433544,00002.380504,-00000.543630,-00000.055993,-00000.534541,-00000.027398,-00000.061034,-00000.266359
0000000000749,00002.401309,00001.687843,00001.826110,00003.485261,00002.646326,00002.758293,00002.635576,00003.092281,00002.433979,00002.380557,-00000.549916,-00000.058818,-00000.537709,-00000.029089,-00000.058181,-00000.262727
0000000000750,00002.402689,00001.691277,00001.827131,00003.483291,00002.646626,00002.758529,00002.636432,00003.092333,00002.434832,00002.380609,-00000.554941,-00000.061453,-00000.540674,-00000.030580,-00000.055949,-00000.259402
0000000000751,00002.404487,00001.694444,00001.828476,00003.481080,00002.647173,00002.758817,00002.636571,00003.092843,00002.435565,00002.380654,-00000.559567,-00000.064221,-00000.543371,-00000.032382,-00000.054246,-00000.255948
0000000000752,00002.405663,00001.697730,00001.829345,00003.479041,00002.647791,00002.759017,00002.637299,00003.093250,00002.436291,00002.380698,-00000.563483,-00000.066827,-00000.546257,-00000.033651,-00000.052346,-00000.252755
0000000000753,00002.406831,00001.700789,00001.830490,00003.477159,00002.648257,00002.759262,00002.637780,00003.094047,00002.436915,00002.381100,-00000.567058,-00000.069546,-00000.548916,-00000.034823,-00000.050170,-00000.249451
0000000000754,00002.408194,00001.703949,00001.831593,00003.475060,00002.649146,00002.759433,00002.638400,00003.094757,00002.437170,00002.381500,-00000.570391,-00000.072127,-00000.551374,-00000.036266,-00000.047464,-00000.246371
0000000000755,00002.409551,00001.706916,00001.832568,00003.473457,00002.649906,00002.760004,00002.639173,00003.095435,00002.438064,00002.381842,-00000.573072,-00000.074804,-00000.554000,-00000.037626,-00000.044887,-00000.243558
0000000000756,00002.411075,00001.709606,00001.833869,00003.472396,00002.650300,00002.760513,00002.639701,00003.096039,00002.439007,00002.382183,-00000.575547,-00000.077364,-00000.556455,-00000.038855,-00000.042583,-00000.240935
0000000000757,00002.412230,00001.712494,00001.835062,00003.471032,00002.650946,00002.760636,00002.640358,00003.096254,00002.439768,00002.382473,-00000.577466,-00000.079281,-00000.558691,-00000.040013,-00000.040389,-00000.238904
0000000000758,00002.413164,00001.715147,00001.835807,00003.469403,00002.651644,00002.760706,00002.641170,00003.096768,00002.440571,00002.382764,-00000.579210,-00000.081460,-00000.560417,-00000.041058,-00000.038791,-00000.236671
0000000000759,00002.414148,00001.717606,00001.836460,00003.467879,00002.652195,00002.760811,00002.641730,00003.096951,00002.441582,00002.383011,-00000.580481,-00000.083455,-00000.562684,-00000.042044,-00000.037648,-00000.234579
0000000000760,00002.414943,00001.720228,00001.837457,00003.466492,00002.652426,00002.760871,00002.642421,00003.097025,00002.442628,00002.383258,-00000.581240,-00000.085673,-00000.564516,-00000.043297,-00000.036650,-00000.232316
0000000000761,00002.416143,00001.722684,00001.838738,00003.465194,00002.652895,00002.760960,00002.642898,00003.097181,00002.443125,00002.383469,-00000.581597,-00000.087734,-00000.566446,-00000.044499,-00000.034952,-00000.230172
0000000000762,00002.417183,00001.724552,00001.839587,00003.464014,00002.653092,00002.761374,00002.643124,00003.097608,00002.443653,00002.383679,-00000.581154,-00000.089622,-00000.568732,-00000.045566,-00000.033014,-00000.228245
0000000000763,00002.418204,00001.726643,00001.840315,00003.463272,00002.653128,00002.761450,00002.643529,00003.097740,00002.444077,00002.383859,-00000.580007,-00000.091376,-00000.570374,-00000.046589,-00000.030843,-00000.226420
0000000000764,00002.419452,00001.728960,00001.841038,00003.462992,00002.653296,00002.761802,00002.644084,00003.098103,00002.444889,00002.384038,-00000.578542,-00000.092984,-00000.571957,-00000.047135,-00000.028831,-00000.224780
0000000000765,00002.420322,00001.730377,00001.842020,00003.462361,00002.653327,00002.761867,00002.644067,00003.098579,00002.445250,00002.384190,-00000.577202,-00000.094477,-00000.573718,-00000.047643,-00000.027345,-00000.223226
0000000000766,00002.421021,00001.731986,00001.842635,00003.461760,00002.653107,00002.762166,00002.644177,00003.098888,00002.445578,00002.384343,-00000.575592,-00000.095845,-00000.575066,-00000.048107,-00000.025995,-00000.222192
0000000000767,00002.421399,00001.733555,00001.842746,00003.461223,00002.653133,00002.762222,00002.644525,00003.098567,00002.446248,00002.384110,-00000.573726,-00000.097479,-00000.576202,-00000.048540,-00000.025093,-00000.221232
0000000000768,00002.421994,00001.734562,00001.843632,00003.460711,00002.653671,00002.762477,00002.644618,00003.098830,00002.446528,00002.384240,-00000.571993,-00000.099007,-00000.577349,-00000.048935,-00000.024306,-00000.219990
0000000000769,00002.422679,00001.735535,00001.844089,00003.460617,00002.653694,00002.762886,00002.644551,00003.098920,00002.447098,00002.384042,-00000.570404,-00000.100398,-00000.578317,-00000.049303,-00000.022813,-00000.218810
0000000000770,00002.423186,00001.736392,00001.844481,00003.460181,00002.654152,00002.763104,00002.644631,00003.099144,00002.447336,00002.384152,-00000.568929,-00000.101699,-00000.579656,-00000.049640,-00000.021417,-00000.217752
0000000000771,00002.423405,00001.737221,00001.844508,00003.459738,00002.654171,00002.763452,00002.644574,00003.099221,00002.447458,00002.384346,-00000.567214,-00000.102883,-00000.580842,-00000.049953,-00000.019783,-00000.216747
0000000000772,00002.423111,00001.738313,00001.844478,00003.459730,00002.654198,00002.763274,00002.645005,00003.099049,00002.447298,00002.384440,-00000.565232,-00000.103990,-00000.581983,-00000.050240,-00000.017870,-00000.215847
0000000000773,00002.422936,00001.739381,00001.844501,00003.460078,00002.654215,00002.763571,00002.645319,00003.099476,00002.447403,00002.384243,-00000.563046,-00000.104998,-00000.582630,-00000.050507,-00000.016116,-00000.215354
0000000000774,00002.422323,00001.740312,00001.844113,00003.460071,00002.654238,00002.763057,00002.645323,00003.099330,00002.447266,00002.383960,-00000.560996,-00000.105941,-00000.583238,-00000.050388,-00000.014487,-00000.214951
0000000000775,00002.422173,00001.740858,00001.843769,00003.459642,00002.654252,00002.762584,00002.645591,00003.099331,00002.446992,00002.384154,-00000.559136,-00000.106799,-00000.583789,-00000.050252,-00000.012994,-00000.214894
0000000000776,00002.422014,00001.741287,00001.843439,00003.459274,00002.654634,00002.762509,00002.645594,00003.099207,00002.446514,00002.384276,-00000.557391,-00000.107602,-00000.584306,-00000.050514,-00000.011607,-00000.214550
0000000000777,00002.421886,00001.741752,00001.843510,00003.459271,00002.654646,00002.762833,00002.645459,00003.099571,00002.446280,00002.384079,-00000.555444,-00000.108332,-00000.584775,-00000.050398,-00000.010336,-00000.213777
0000000000778,00002.421751,00001.742117,00001.843229,00003.459320,00002.654246,00002.762769,00002.645461,00003.099464,00002.446236,00002.383458,-00000.553233,-00000.109015,-00000.585216,-00000.050621,-00000.009156,-00000.213121
0000000000779,00002.421643,00001.742513,00001.842926,00003.459318,00002.654256,00002.762681,00002.645709,00003.099774,00002.446037,00002.383290,-00000.551213,-00000.109637,-00000.585615,-00000.050886,-00000.008074,-00000.212463
0000000000780,00002.421164,00001.742824,00001.842686,00003.459722,00002.654278,00002.762264,00002.645712,00003.099321,00002.445999,00002.382761,-00000.548968,-00000.110219,-00000.585990,-00000.050712,-00000.007431,-00000.211905
0000000000781,00002.421435,00001.743524,00001.842428,00003.460446,00002.653924,00002.762189,00002.645560,00003.098859,00002.445830,00002.382618,-00000.546885,-00000.110748,-00000.586330,-00000.050938,-00000.006510,-00000.211707
0000000000782,00002.421391,00001.743789,00001.842588,00003.460790,00002.654306,00002.762197,00002.645562,00003.098836,00002.445797,00002.382530,-00000.545337,-00000.111243,-00000.586649,-00000.050790,-00000.005601,-00000.211595
0000000000783,00002.421258,00001.744022,00001.842731,00003.460681,00002.654367,00002.762133,00002.645433,00003.098806,00002.445291,00002.382409,-00000.543926,-00000.111694,-00000.586939,-00000.050982,-00000.005542,-00000.211064
0000000000784,00002.419407,00001.744247,00001.842866,00003.460974,00002.654692,00002.762140,00002.645797,00003.098786,00002.445263,00002.382334,-00000.542608,-00000.112116,-00000.587210,-00000.051219,-00000.005856,-00000.210605
0000000000785,00002.417843,00001.744446,00001.842988,00003.461244,00002.654744,00002.762086,00002.645687,00003.099123,00002.444832,00002.382230,-00000.541408,-00000.112499,-00000.587457,-00000.051382,-00000.005806,-00000.210153
0000000000786,00002.415904,00001.744637,00001.842741,00003.461130,00002.654658,00002.761728,00002.645998,00003.098744,00002.444808,00002.382167,-00000.540286,-00000.112858,-00000.587325,-00000.051221,-00000.005711,-00000.209763
0000000000787,00002.414209,00001.744806,00001.842482,00003.461723,00002.654340,00002.762045,00002.645904,00003.098668,00002.445167,00002.382079,-00000.539264,-00000.112822,-00000.587172,-00000.050998,-00000.005669,-00000.209378
0000000000788,00002.412921,00001.744970,00001.842271,00003.462352,00002.654267,00002.761741,00002.646168,00003.098708,00002.445509,00002.382024,-00000.538309,-00000.112765,-00000.587060,-00000.050861,-00000.005587,-00000.208683
0000000000789,00002.411842,00001.745113,00001.842413,00003.462131,00002.654358,00002.761648,00002.646088,00003.098643,00002.445452,00002.381949,-00000.537439,-00000.113097,-00000.586930,-00000.051033,-00000.005914,-00000.207992
0000000000790,00002.410745,00001.745252,00001.842234,00003.462303,00002.654296,00002.761752,00002.646313,00003.098677,00002.445744,00002.381903,-00000.536625,-00000.113048,-00000.586835,-00000.051279,-00000.006208,-00000.207401
0000000000791,00002.409464,00001.745738,00001.841992,00003.462841,00002.654374,00002.761673,00002.646608,00003.098622,00002.446057,00002.381840,-00000.535885,-00000.112968,-00000.586724,-00000.051426,-00000.006849,-00000.207539
0000000000792,00002.408893,00001.745856,00001.842203,00003.463351,00002.654321,00002.762124,00002.646800,00003.098651,00002.446306,00002.381800,-00000.534830,-00000.112926,-00000.586643,-00000.051635,-00000.008187,-00000.207760
0000000000793,00002.407802,00001.745906,00001.841997,00003.463808,00002.654024,00002.762056,00002.646688,00003.098604,00002.446573,00002.381746,-00000.533836,-00000.112858,-00000.586186,-00000.051760,-00000.009458,-00000.207878
0000000000794,00002.407679,00001.746007,00001.842176,00003.464242,00002.653979,00002.762440,00002.646488,00003.098629,00002.446784,00002.381713,-00000.533301,-00000.112822,-00000.586117,-00000.051939,-00000.010235,-00000.208067
0000000000795,00002.407113,00001.746050,00001.842001,00003.464268,00002.654090,00002.762383,00002.646756,00003.098589,00002.447374,00002.381666,-00000.532818,-00000.112764,-00000.586090,-00000.052045,-00000.010954,-00000.207804
0000000000796,00002.406645,00001.746498,00001.842153,00003.464275,00002.654051,00002.762347,00002.646949,00003.098610,00002.447917,00002.382001,-00000.532000,-00000.112734,-00000.586031,-00000.051834,-00000.011252,-00000.207602
0000000000797,00002.406526,00001.746535,00001.842367,00003.465023,00002.654145,00002.763024,00002.646814,00003.098938,00002.448057,00002.382324,-00000.531226,-00000.112685,-00000.585646,-00000.051562,-00000.011865,-00000.207378
0000000000798,00002.406491,00001.746554,00001.842496,00003.464666,00002.654475,00002.762993,00002.646978,00003.098956,00002.448156,00002.382609,-00000.530529,-00000.112659,-00000.585596,-00000.051745,-00000.012844,-00000.207206
0000000000799,00002.406390,00001.746585,00001.842678,00003.464940,00002.654555,00002.763207,00002.646863,00003.099236,00002.448275,00002.382884,-00000.529870,-00000.112617,-00000.585268,-00000.051876,-00000.013728,-00000.207015
0000000000800,00002.405997,00001.746964,00001.842789,00003.465362,00002.654474,00002.763181,00002.647002,00003.098888,00002.448722,00002.382763,-00000.529277,-00000.112232,-00000.585225,-00000.052032,-00000.014562,-00000.207232
0000000000801,00002.405911,00001.746990,00001.843306,00003.465233,00002.654542,00002.763362,00002.646905,00003.099127,00002.448823,00002.382998,-00000.528716,-00000.111834,-00000.584946,-00000.051781,-00000.014952,-00000.207432
0000000000802,00002.405576,00001.747313,00001.843400,00003.465229,00002.654472,00002.763340,00002.647024,00003.099194,00002.448841,00002.383258,-00000.528211,-00000.111869,-00000.584910,-00000.051551,-00000.014936,-00000.207254
0000000000803,00002.405866,00001.747698,00001.843841,00003.465481,00002.654893,00002.763857,00002.646940,00003.099396,00002.448927,00002.383458,-00000.527734,-00000.111893,-00000.584672,-00000.051337,-00000.014905,-00000.207062
0000000000804,00002.405581,00001.747973,00001.843921,00003.465841,00002.654834,00002.764201,00002.647042,00003.099453,00002.449305,00002.383316,-00000.527304,-00000.111923,-00000.584279,-00000.051141,-00000.014892,-00000.206910
0000000000805,00002.405827,00001.748301,00001.844296,00003.466419,00002.654829,00002.764642,00002.647333,00003.099263,00002.449742,00002.383486,-00000.526897,-00000.111943,-00000.584076,-00000.050959,-00000.014503,-00000.206746
0000000000806,00002.405948,00001.748535,00001.844727,00003.466362,00002.655141,00002.764935,00002.647420,00003.099312,00002.449701,00002.383729,-00000.526531,-00000.111968,-00000.583741,-00000.050792,-00000.014129,-00000.206617
0000000000807,00002.405795,00001.748451,00001.845409,00003.466128,00002.655500,00002.764947,00002.647305,00003.099513,00002.449709,00002.383873,-00000.526186,-00000.111985,-00000.583569,-00000.050637,-00000.013435,-00000.206115
0000000000808,00002.406260,00001.748287,00001.846139,00003.466080,00002.655766,00002.765196,00002.647379,00003.099917,00002.449674,00002.384080,-00000.525874,-00000.111644,-00000.583283,-00000.050132,-00000.012753,-00000.206005
0000000000809,00002.406492,00001.748579,00001.846357,00003.466244,00002.655709,00002.765206,00002.647281,00003.099725,00002.450044,00002.384203,-00000.525942,-00000.111659,-00000.583137,-00000.049638,-00000.012163,-00000.205940
0000000000810,00002.406889,00001.748802,00001.846978,00003.466203,00002.655935,00002.765419,00002.647344,00003.099706,00002.450377,00002.384379,-00000.526040,-00000.111731,-00000.582894,-00000.049208,-00000.011220,-00000.205484
0000000000811,00002.407449,00001.749051,00001.847526,00003.466342,00002.656612,00002.765790,00002.647624,00003.100269,00002.450330,00002.384846,-00000.526098,-00000.111744,-00000.582769,-00000.048787,-00000.009991,-00000.205429
0000000000812,00002.407786,00001.748878,00001.848055,00003.466307,00002.656805,00002.765971,00002.647314,00003.100615,00002.450250,00002.384996,-00000.526181,-00000.111805,-00000.582562,-00000.048058,-00000.008826,-00000.205040
0000000000813,00002.407901,00001.749089,00001.848159,00003.466426,00002.657018,00002.766287,00002.647553,00003.100731,00002.450573,00002.385031,-00000.526230,-00000.111816,-00000.582456,-00000.047700,-00000.008143,-00000.204993
0000000000814,00002.408188,00001.749305,00001.848246,00003.466396,00002.657182,00002.766441,00002.647652,00003.100664,00002.450868,00002.385521,-00000.525938,-00000.111868,-00000.582280,-00000.047442,-00000.007876,-00000.205025
0000000000815,00002.408286,00001.749122,00001.848335,00003.466134,00002.657001,00002.766348,00002.647492,00003.100762,00002.450417,00002.385914,-00000.525980,-00000.111877,-00000.582190,-00000.047137,-00000.007658,-00000.205348
0000000000816,00002.408167,00001.748943,00001.848409,00003.466109,00002.657141,00002.766116,00002.647576,00003.101068,00002.450668,00002.386331,-00000.526095,-00000.111922,-00000.582040,-00000.046918,-00000.007431,-00000.205738
0000000000817,00002.408250,00001.748788,00001.848484,00003.465886,00002.656987,00002.766036,00002.647440,00003.100789,00002.450647,00002.386666,-00000.525768,-00000.111930,-00000.581963,-00000.046658,-00000.006882,-00000.206013
0000000000818,00002.408512,00001.748635,00001.848548,00003.465865,00002.656743,00002.766202,00002.647149,00003.101049,00002.450498,00002.387021,-00000.525502,-00000.111968,-00000.581835,-00000.046471,-00000.005963,-00000.206345
0000000000819,00002.408946,00001.748503,00001.848612,00003.466038,00002.656974,00002.766134,00002.647033,00003.101174,00002.450480,00002.387306,-00000.524861,-00000.111974,-00000.581770,-00000.046250,-00000.005133,-00000.206216
0000000000820,00002.408806,00001.748373,00001.848666,00003.466019,00002.656767,00002.766275,00002.646786,00003.101033,00002.450353,00002.387608,-00000.524635,-00000.112007,-00000.581661,-00000.046091,-00000.004351,-00000.206136
0000000000821,00002.408449,00001.748260,00001.848357,00003.465441,00002.656964,00002.766217,00002.647050,00003.100777,00002.450337,00002.387850,-00000.524452,-00000.112012,-00000.581605,-00000.045903,-00000.004007,-00000.206027
0000000000822,00002.408693,00001.748150,00001.848403,00003.465788,00002.656787,00002.766337,00002.646839,00003.101019,00002.450230,00002.388108,-00000.524259,-00000.112040,-00000.581513,-00000.045768,-00000.003704,-00000.206321
0000000000823,00002.408390,00001.748054,00001.848504,00003.465296,00002.656955,00002.766288,00002.647064,00003.100801,00002.450216,00002.388314,-00000.524103,-00000.111682,-00000.581102,-00000.045245,-00000.003411,-00000.206591
0000000000824,00002.408597,00001.747959,00001.848906,00003.465592,00002.656804,00002.766753,00002.646884,00003.101007,00002.450125,00002.388171,-00000.523940,-00000.111342,-00000.581024,-00000.044767,-00000.003153,-00000.206841
0000000000825,00002.408701,00001.747878,00001.848991,00003.465898,00002.656584,00002.766711,00002.646713,00003.101185,00002.450476,00002.387983,-00000.523807,-00000.111037,-00000.581037,-00000.044684,-00000.002904,-00000.207071
0000000000826,00002.408515,00001.748160,00001.848970,00003.465787,00002.656819,00002.766744,00002.646923,00003.101360,00002.450398,00002.388224,-00000.523667,-00000.111111,-00000.580970,-00000.044640,-00000.002684,-00000.206921
0000000000827,00002.408241,00001.748454,00001.849043,00003.465685,00002.656995,00002.766708,00002.647140,00003.101148,00002.450697,00002.388065,-00000.523555,-00000.111215,-00000.580982,-00000.044570,-00000.002472,-00000.206754
0000000000828,00002.408446,00001.748332,00001.849388,00003.465590,00002.657194,00002.766736,00002.647319,00003.101298,00002.450631,00002.388269,-00000.523073,-00000.111278,-00000.580562,-00000.044170,-00000.002285,-00000.206627
0000000000829,00002.408938,00001.748218,00001.849450,00003.465867,00002.656981,00002.767069,00002.647141,00003.101480,00002.450886,00002.388496,-00000.522614,-00000.111003,-00000.580209,-00000.044110,-00000.002104,-00000.206847
0000000000830,00002.409112,00001.748477,00001.849381,00003.466149,00002.657151,00002.767092,00002.647293,00003.101245,00002.451192,00002.388308,-00000.522204,-00000.111056,-00000.579851,-00000.044132,-00000.002308,-00000.207102
0000000000831,00002.409169,00001.748744,00001.849434,00003.466021,00002.656970,00002.767013,00002.647504,00003.101037,00002.451409,00002.388139,-00000.521814,-00000.110822,-00000.579551,-00000.044081,-00000.002517,-00000.207289
0000000000832,00002.409679,00001.748964,00001.849738,00003.466624,00002.657114,00002.767396,00002.647634,00003.101199,00002.451669,00002.388341,-00000.521465,-00000.110868,-00000.579247,-00000.044100,-00000.002328,-00000.207506
0000000000833,00002.410090,00001.748828,00001.850146,00003.466515,00002.657322,00002.767691,00002.647813,00003.101386,00002.451491,00002.388559,-00000.521132,-00000.111031,-00000.578991,-00000.044057,-00000.002143,-00000.207303
0000000000834,00002.410162,00001.748653,00001.850042,00003.466666,00002.657083,00002.767654,00002.647924,00003.101161,00002.451713,00002.388369,-00000.520835,-00000.111070,-00000.578732,-00000.044072,-00000.001619,-00000.207124
0000000000835,00002.410512,00001.748537,00001.850026,00003.466936,00002.656897,00002.767905,00002.648077,00003.101319,00002.451924,00002.388555,-00000.520915,-00000.111210,-00000.578877,-00000.044036,-00000.000736,-00000.206951
0000000000836,00002.410573,00001.748388,00001.849938,00003.466701,00002.657056,00002.767874,00002.648171,00003.101128,00002.452113,00002.388756,-00000.521024,-00000.111243,-00000.579019,-00000.044049,00000.000073,-00000.206800
0000000000837,00002.410871,00001.748652,00001.849924,00003.466931,00002.656898,00002.768088,00002.648301,00003.101263,00002.452293,00002.388914,-00000.520729,-00000.110998,-00000.578780,-00000.043655,00000.000462,-00000.206652
0000000000838,00002.410923,00001.748888,00001.849849,00003.466732,00002.657034,00002.768061,00002.648744,00003.101100,00002.452453,00002.389085,-00000.520460,-00000.111027,-00000.578538,-00000.043667,00000.000788,-00000.206886
0000000000839,00002.410814,00001.749113,00001.849838,00003.466565,00002.657262,00002.767880,00002.649217,00003.100852,00002.452969,00002.389220,-00000.520572,-00000.111181,-00000.578697,-00000.043694,00000.000756,-00000.206760
0000000000840,00002.410859,00001.749314,00001.849774,00003.466758,00002.657014,00002.767858,00002.649231,00003.100714,00002.453106,00002.389365,-00000.520705,-00000.111205,-00000.578491,-00000.043704,00000.000671,-00000.206959
0000000000841,00002.411128,00001.749505,00001.850127,00003.466615,00002.657209,00002.767704,00002.649272,00003.100865,00002.453182,00002.389843,-00000.520438,-00000.110974,-00000.578264,-00000.043727,00000.000281,-00000.207215
0000000000842,00002.411166,00001.749676,00001.850435,00003.466779,00002.656998,00002.768047,00002.649284,00003.100747,00002.453299,00002.389966,-00000.520551,-00000.110995,-00000.578089,-00000.043372,00000.000208,-00000.207385
0000000000843,00002.411396,00001.749839,00001.850736,00003.467384,00002.657163,00002.768279,00002.649318,00003.100877,00002.453364,00002.390373,-00000.520686,-00000.110798,-00000.577895,-00000.043029,00000.000239,-00000.207603
0000000000844,00002.411428,00001.749622,00001.850998,00003.467161,00002.657347,00002.768209,00002.649328,00003.101139,00002.453100,00002.390841,-00000.520783,-00000.110816,-00000.577746,-00000.042728,00000.000540,-00000.207747
0000000000845,00002.411623,00001.749398,00001.851254,00003.467313,00002.657125,00002.768406,00002.648995,00003.101249,00002.453156,00002.391187,-00000.520898,-00000.110648,-00000.577581,-00000.042073,00000.000566,-00000.207932
0000000000846,00002.411651,00001.749576,00001.851477,00003.467123,00002.657281,00002.767983,00002.649004,00003.101472,00002.453294,00002.391586,-00000.520980,-00000.110300,-00000.577455,-00000.041816,00000.000097,-00000.208055
0000000000847,00002.411817,00001.749748,00001.852058,00003.466889,00002.657817,00002.767063,00002.649083,00003.101929,00002.453341,00002.392243,-00000.521441,-00000.110158,-00000.576951,-00000.041258,00000.000119,-00000.208213
0000000000848,00002.412203,00001.749899,00001.852248,00003.467091,00002.657950,00002.766340,00002.649453,00003.102119,00002.453822,00002.392582,-00000.521874,-00000.109499,-00000.576481,-00000.040677,00000.000083,-00000.208317
0000000000849,00002.412345,00001.750046,00001.852380,00003.467255,00002.658044,00002.765557,00002.649520,00003.102145,00002.454225,00002.392779,-00000.522266,-00000.109377,-00000.576415,-00000.040202,-00000.000261,-00000.208089
0000000000850,00002.412674,00001.749812,00001.852541,00003.467789,00002.658157,00002.765304,00002.649472,00003.102306,00002.454634,00002.393068,-00000.522635,-00000.109179,-00000.576014,-00000.040070,-00000.000655,-00000.207815
0000000000851,00002.412794,00001.749936,00001.852653,00003.467928,00002.658237,00002.764637,00002.649167,00003.102328,00002.454614,00002.393236,-00000.523331,-00000.109076,-00000.575596,-00000.039666,-00000.000948,-00000.207621
0000000000852,00002.413074,00001.750100,00001.853154,00003.467294,00002.658696,00002.764060,00002.649126,00003.102466,00002.454599,00002.393844,-00000.524370,-00000.108544,-00000.575254,-00000.039191,-00000.000921,-00000.207388
0000000000853,00002.412814,00001.750569,00001.853249,00003.467051,00002.659127,00002.763492,00002.649592,00003.102485,00002.454583,00002.393987,-00000.525326,-00000.108094,-00000.574898,-00000.038847,-00000.000807,-00000.207222
0000000000854,00002.412690,00001.750708,00001.853313,00003.466148,00002.659518,00002.762637,00002.649557,00003.102602,00002.454570,00002.394142,-00000.526211,-00000.107641,-00000.574245,-00000.038442,-00000.000421,-00000.207024
0000000000855,00002.412831,00001.750745,00001.853757,00003.465941,00002.659885,00002.762154,00002.649953,00003.102618,00002.454919,00002.394627,-00000.527387,-00000.107257,-00000.573942,-00000.038149,00000.000039,-00000.206883
0000000000856,00002.413088,00001.750501,00001.854173,00003.465898,00002.659855,00002.761789,00002.649924,00003.102718,00002.454908,00002.395122,-00000.529229,-00000.106872,-00000.573748,-00000.037805,00000.000367,-00000.206714
0000000000857,00002.413208,00001.750894,00001.854551,00003.465721,00002.660167,00002.761378,00002.650261,00003.102731,00002.454842,00002.395171,-00000.530956,-00000.106183,-00000.573127,-00000.037193,00000.000758,-00000.206594
0000000000858,00002.413427,00001.751049,00001.854906,00003.465685,00002.660504,00002.761067,00002.649873,00003.103179,00002.454470,00002.395230,-00000.532887,-00000.105492,-00000.572963,-00000.036537,00000.001038,-00000.206450
0000000000859,00002.413529,00001.751022,00001.855228,00003.465172,00002.660770,00002.760717,00002.650161,00003.103553,00002.454414,00002.395635,-00000.534720,-00000.104905,-00000.572434,-00000.036016,00000.001371,-00000.206348
0000000000860,00002.413715,00001.751154,00001.855167,00003.464778,00002.661057,00002.760452,00002.650193,00003.103572,00002.454823,00002.396047,-00000.536363,-00000.104317,-00000.571931,-00000.035457,00000.001609,-00000.206226
0000000000861,00002.414165,00001.751130,00001.855441,00003.464704,00002.660921,00002.761243,00002.650075,00003.103890,00002.454775,00002.396392,-00000.537924,-00000.103817,-00000.571481,-00000.035014,00000.001893,-00000.206139
0000000000862,00002.414323,00001.750880,00001.855389,00003.464006,00002.661165,00002.761743,00002.650103,00003.104269,00002.454761,00002.396743,-00000.539323,-00000.103317,-00000.571416,-00000.034538,00000.002096,-00000.206035
0000000000863,00002.413981,00001.750497,00001.854897,00003.463217,00002.660686,00002.762053,00002.649639,00003.103815,00002.454720,00002.396674,-00000.540288,-00000.102891,-00000.571033,-00000.034161,00000.002700,-00000.205961
0000000000864,00002.414479,00001.750646,00001.854853,00003.462623,00002.660532,00002.762842,00002.649300,00003.104137,00002.454707,00002.396973,-00000.541117,-00000.102465,-00000.570614,-00000.033393,00000.003598,-00000.205872
0000000000865,00002.414550,00001.750683,00001.854796,00003.461589,00002.660487,00002.763106,00002.649631,00003.104113,00002.455035,00002.397277,-00000.541576,-00000.102103,-00000.570288,-00000.033072,00000.004475,-00000.205446
0000000000866,00002.414248,00001.750811,00001.854759,00003.461083,00002.660355,00002.763415,00002.649705,00003.104024,00002.455388,00002.397169,-00000.541918,-00000.101740,-00000.569932,-00000.032781,00000.005240,-00000.205008
0000000000867,00002.413946,00001.750479,00001.854348,00003.460565,00002.659954,00002.763639,00002.649624,00003.104004,00002.455304,00002.397065,-00000.542309,-00000.101795,-00000.569654,-00000.032508,00000.005986,-00000.204645
0000000000868,00002.414051,00001.750225,00001.854316,00003.459772,00002.659842,00002.763902,00002.649687,00003.103929,00002.454879,00002.397335,-00000.542601,-00000.101486,-00000.569351,-00000.032260,00000.006275,-00000.204272
0000000000869,00002.414157,00001.750306,00001.853966,00003.459694,00002.659863,00002.764093,00002.649618,00003.103911,00002.454807,00002.397247,-00000.542934,-00000.101170,-00000.569477,-00000.032027,00000.006547,-00000.203964
0000000000870,00002.413884,00001.750452,00001.853576,00003.459019,00002.659767,00002.764317,00002.649672,00003.103847,00002.454808,00002.397477,-00000.543182,-00000.101270,-00000.569582,-00000.031817,00000.006793,-00000.203646
0000000000871,00002.414337,00001.750158,00001.853278,00003.458590,00002.659423,00002.764843,00002.649613,00003.103832,00002.454747,00002.397764,-00000.543465,-00000.101363,-00000.569327,-00000.031618,00000.007388,-00000.203020
0000000000872,00002.414468,00001.749919,00001.852946,00003.458378,00002.658979,00002.765033,00002.649659,00003.103778,00002.454748,00002.397598,-00000.543313,-00000.101085,-00000.569053,-00000.031439,00000.007959,-00000.202750
0000000000873,00002.414490,00001.750032,00001.852693,00003.458375,00002.658685,00002.765481,00002.649609,00003.104128,00002.455059,00002.397842,-00000.543192,-00000.100802,-00000.568836,-00000.031270,00000.008466,-00000.202217
0000000000874,00002.414238,00001.749829,00001.852410,00003.458194,00002.658307,00002.766006,00002.649648,00003.104081,00002.455422,00002.398063,-00000.543425,-00000.100566,-00000.568603,-00000.030755,00000.008590,-00000.201624
0000000000875,00002.414258,00001.749562,00001.852557,00003.457830,00002.658420,00002.766024,00002.649605,00003.104379,00002.455324,00002.398271,-00000.543322,-00000.100325,-00000.568418,-00000.030611,00000.008295,-00000.201171
0000000000876,00002.414406,00001.749389,00001.852317,00003.457676,00002.658099,00002.766471,00002.649275,00003.104703,00002.455270,00002.398097,-00000.543521,-00000.100486,-00000.568220,-00000.030172,00000.008038,-00000.200304
0000000000877,00002.414423,00001.749162,00001.852442,00003.457365,00002.657832,00002.766849,00002.648876,00003.104594,00002.454824,00002.398274,-00000.543433,-00000.100644,-00000.568425,-00000.029687,00000.007788,-00000.199555
0000000000878,00002.414549,00001.749377,00001.852237,00003.457234,00002.657921,00002.766504,00002.648959,00003.104506,00002.455141,00002.398488,-00000.543239,-00000.100781,-00000.568256,-00000.029676,00000.007931,-00000.199179
0000000000879,00002.414563,00001.749184,00001.852344,00003.456970,00002.657694,00002.766826,00002.648619,00003.104776,00002.455125,00002.398639,-00000.543164,-00000.100915,-00000.568068,-00000.029263,00000.008081,-00000.198904
0000000000880,00002.414671,00001.749005,00001.852532,00003.456858,00002.657770,00002.766895,00002.648689,00003.105064,00002.455032,00002.398821,-00000.543000,-00000.101032,-00000.567924,-00000.029254,00000.008203,-00000.198585
0000000000881,00002.414682,00001.749203,00001.852260,00003.456996,00002.657939,00002.766806,00002.649125,00003.104931,00002.455380,00002.398587,-00000.542936,-00000.101146,-00000.567764,-00000.028903,00000.008330,-00000.198351
0000000000882,00002.414411,00001.749413,00001.852058,00003.456901,00002.658004,00002.766865,00002.649547,00003.104814,00002.455664,00002.398742,-00000.542796,-00000.101246,-00000.567642,-00000.028895,00000.008434,-00000.197716
0000000000883,00002.414421,00001.749219,00001.852189,00003.456293,00002.658148,00002.766789,00002.649193,00003.105063,00002.455598,00002.398905,-00000.542741,-00000.101343,-00000.567869,-00000.028595,00000.008906,-00000.197154
0000000000884,00002.414553,00001.749035,00001.852379,00003.456212,00002.658203,00002.767202,00002.648827,00003.104963,00002.455113,00002.399037,-00000.542622,-00000.101428,-00000.567764,-00000.028226,00000.008994,-00000.196613
0000000000885,00002.414925,00001.748870,00001.852491,00003.456057,00002.657963,00002.767500,00002.648526,00003.104813,00002.455057,00002.399176,-00000.542576,-00000.101148,-00000.567594,-00000.027971,00000.008670,-00000.196498
0000000000886,00002.415037,00001.748713,00001.852653,00003.455625,00002.658010,00002.767126,00002.648577,00003.104728,00002.455008,00002.399289,-00000.542474,-00000.101220,-00000.567506,-00000.027657,00000.008382,-00000.196400
0000000000887,00002.414991,00001.748573,00001.852385,00003.455856,00002.657805,00002.767380,00002.648320,00003.104600,00002.454960,00002.399044,-00000.542435,-00000.101345,-00000.567724,-00000.027803,00000.008469,-00000.196302
0000000000888,00002.415086,00001.748440,00001.852161,00003.455851,00002.657845,00002.767424,00002.648727,00003.104528,00002.454918,00002.399140,-00000.542348,-00000.101406,-00000.567648,-00000.027898,00000.008224,-00000.196219
0000000000889,00002.415046,00001.748320,00001.852296,00003.456048,00002.657671,00002.767278,00002.648508,00003.104782,00002.454877,00002.398932,-00000.542315,-00000.101149,-00000.567834,-00000.027659,00000.008298,-00000.196135
0000000000890,00002.414765,00001.748569,00001.852104,00003.456407,00002.657705,00002.767316,00002.648492,00003.104720,00002.454841,00002.398651,-00000.542604,-00000.101202,-00000.567770,-00000.027377,00000.008452,-00000.196065
0000000000891,00002.414369,00001.748467,00001.851856,00003.456211,00002.657920,00002.766828,00002.648668,00003.104210,00002.454807,00002.398473,-00000.542938,-00000.101346,-00000.567565,-00000.027174,00000.008515,-00000.195993
0000000000892,00002.414492,00001.748317,00001.851693,00003.456517,00002.657586,00002.767223,00002.648291,00003.104158,00002.454776,00002.398597,-00000.543184,-00000.101027,-00000.567510,-00000.026934,00000.008647,-00000.195933
0000000000893,00002.414517,00001.748230,00001.851845,00003.456713,00002.657406,00002.767534,00002.648079,00003.104450,00002.454747,00002.398446,-00000.543469,-00000.101150,-00000.567336,-00000.027124,00000.008700,-00000.195873
0000000000894,00002.414622,00001.748102,00001.851707,00003.456973,00002.657122,00002.767870,00002.648121,00003.104405,00002.454721,00002.398188,-00000.543678,-00000.101242,-00000.567290,-00000.026920,00000.008812,-00000.195821
0000000000895,00002.414643,00001.748028,00001.851836,00003.456415,00002.657331,00002.767771,00002.648303,00003.104291,00002.454695,00002.398422,-00000.544283,-00000.100984,-00000.567141,-00000.027081,00000.008858,-00000.195407
0000000000896,00002.414733,00001.747919,00001.852080,00003.456636,00002.657452,00002.767695,00002.647976,00003.104615,00002.454673,00002.398566,-00000.544825,-00000.100699,-00000.567102,-00000.026908,00000.008953,-00000.195363
0000000000897,00002.414751,00001.747856,00001.852190,00003.456523,00002.657630,00002.767611,00002.647768,00003.104881,00002.454652,00002.398765,-00000.545703,-00000.100479,-00000.566975,-00000.026682,00000.008629,-00000.195373
0000000000898,00002.414827,00001.747763,00001.852399,00003.456349,00002.657733,00002.767546,00002.647852,00003.105157,00002.454633,00002.398887,-00000.546889,-00000.100237,-00000.567304,-00000.026534,00000.008710,-00000.194974
0000000000899,00002.414842,00001.747709,00001.852492,00003.455890,00002.658248,00002.767475,00002.648038,00003.105021,00002.454252,00002.399057,-00000.547999,-00000.100049,-00000.567560,-00000.026705,00000.008797,-00000.194619
0000000000900,00002.415270,00001.747630,00001.852670,00003.455742,00002.658335,00002.767782,00002.647747,00003.105256,00002.454236,00002.399161,-00000.549372,-00000.099843,-00000.567840,-00000.026942,00000.008866,-00000.194279
0000000000901,00002.415283,00001.747585,00001.852749,00003.455714,00002.658411,00002.768084,00002.647542,00003.105139,00002.454275,00002.399306,-00000.550317,-00000.100047,-00000.568057,-00000.027088,00000.008940,-00000.193977
0000000000902,00002.415284,00001.747518,00001.852900,00003.455588,00002.658485,00002.767983,00002.647294,00003.104977,00002.454261,00002.399031,-00000.551485,-00000.100234,-00000.568296,-00000.027289,00000.008999,-00000.193687
0000000000903,00002.415658,00001.747479,00001.852968,00003.455564,00002.658549,00002.768240,00002.647120,00003.105241,00002.454294,00002.399154,-00000.552653,-00000.100044,-00000.568118,-00000.027051,00000.009062,-00000.193431
0000000000904,00002.415659,00001.747421,00001.853097,00003.455094,00002.658976,00002.768154,00002.647272,00003.105465,00002.454282,00002.399284,-00000.553647,-00000.099841,-00000.567958,-00000.026859,00000.009112,-00000.193184
0000000000905,00002.415615,00001.747388,00001.853154,00003.455074,00002.659030,00002.768010,00002.647124,00003.105327,00002.454673,00002.399026,-00000.554641,-00000.099679,-00000.567807,-00000.026656,00000.009165,-00000.192965
0000000000906,00002.415253,00001.747702,00001.852901,00003.454674,00002.659393,00002.767936,00002.647616,00003.105155,00002.455026,00002.399136,-00000.555488,-00000.099506,-00000.567671,-00000.026493,00000.009208,-00000.192755
0000000000907,00002.414853,00001.747674,00001.852587,00003.454294,00002.659440,00002.767814,00002.647852,00003.104675,00002.454995,00002.398916,-00000.556334,-00000.099369,-00000.567542,-00000.026320,00000.009254,-00000.192569
0000000000908,00002.414907,00001.747579,00001.852372,00003.454316,00002.659023,00002.768114,00002.647546,00003.104891,00002.454933,00002.398647,-00000.557055,-00000.099221,-00000.567426,-00000.026182,00000.009290,-00000.192390
0000000000909,00002.414566,00001.747555,00001.851742,00003.453992,00002.658700,00002.768010,00002.647747,00003.104482,00002.454907,00002.398460,-00000.558138,-00000.099104,-00000.567316,-00000.025672,00000.009329,-00000.192232
0000000000910,00002.414250,00001.747836,00001.851558,00003.453648,00002.658708,00002.767903,00002.647849,00003.103941,00002.454854,00002.398231,-00000.559114,-00000.098979,-00000.567218,-00000.025554,00000.009360,-00000.192080
0000000000911,00002.414322,00001.747816,00001.851022,00003.453373,00002.658433,00002.767814,00002.647658,00003.103593,00002.454832,00002.397709,-00000.560399,-00000.098516,-00000.567124,-00000.025482,00000.009393,-00000.191582
0000000000912,00002.413690,00001.747693,00001.850503,00003.452354,00002.658077,00002.767360,00002.647744,00003.103132,00002.454787,00002.397151,-00000.561593,-00000.098047,-00000.566678,-00000.025382,00000.009782,-00000.190727
0000000000913,00002.413027,00001.747676,00001.850047,00003.451757,00002.657842,00002.766922,00002.647944,00003.103198,00002.454768,00002.397069,-00000.563050,-00000.098016,-00000.566235,-00000.025321,00000.010173,-00000.190303
0000000000914,00002.412851,00001.747571,00001.849605,00003.450890,00002.657902,00002.766535,00002.647655,00003.102806,00002.454367,00002.396957,-00000.564792,-00000.097616,-00000.565855,-00000.025235,00000.010504,-00000.189938
0000000000915,00002.412649,00001.747193,00001.849216,00003.450382,00002.657340,00002.766162,00002.647462,00003.102863,00002.454351,00002.396525,-00000.566757,-00000.097227,-00000.565841,-00000.025184,00000.010474,-00000.189578
0000000000916,00002.412500,00001.746741,00001.848840,00003.450007,00002.657028,00002.766196,00002.647216,00003.102892,00002.454010,00002.396430,-00000.568603,-00000.096887,-00000.565880,-00000.025111,00000.010393,-00000.189267
0000000000917,00002.412328,00001.746420,00001.848509,00003.449937,00002.656912,00002.765878,00002.647415,00003.102940,00002.453996,00002.396425,-00000.570639,-00000.096556,-00000.565506,-00000.025067,00000.010368,-00000.188960
0000000000918,00002.411838,00001.746398,00001.848189,00003.449617,00002.656647,00002.765544,00002.647568,00003.102601,00002.454431,00002.395980,-00000.572211,-00000.096266,-00000.565176,-00000.024642,00000.010299,-00000.188695
0000000000919,00002.411691,00001.746124,00001.847907,00003.449195,00002.656548,00002.765274,00002.647375,00003.102642,00002.454420,00002.395976,-00000.573581,-00000.095984,-00000.564858,-00000.024242,00000.010277,-00000.188434
0000000000920,00002.411274,00001.745743,00001.847272,00003.448923,00002.656322,00002.764989,00002.647505,00003.102354,00002.454427,00002.395598,-00000.574556,-00000.095737,-00000.564577,-00000.023880,00000.010219,-00000.188208
0000000000921,00002.411149,00001.745510,00001.847032,00003.448200,00002.656238,00002.764396,00002.647341,00003.102389,00002.454054,00002.395232,-00000.574634,-00000.095860,-00000.564306,-00000.023902,00000.009837,-00000.187986
0000000000922,00002.411157,00001.745185,00001.846854,00003.447606,00002.656046,00002.764154,00002.646726,00003.102507,00002.453698,00002.395273,-00000.574739,-00000.096013,-00000.564067,-00000.023957,00000.009062,-00000.187794
0000000000923,00002.410688,00001.745349,00001.846287,00003.447354,00002.655974,00002.764012,00002.646949,00003.102174,00002.453743,00002.394961,-00000.574442,-00000.096117,-00000.564199,-00000.024339,00000.008737,-00000.187242
0000000000924,00002.410695,00001.745073,00001.846136,00003.447211,00002.655811,00002.764169,00002.646788,00003.102274,00002.453803,00002.394995,-00000.574169,-00000.096247,-00000.564358,-00000.024748,00000.008440,-00000.186353
0000000000925,00002.410295,00001.744850,00001.845653,00003.447359,00002.655387,00002.764048,00002.646615,00003.101990,00002.453479,00002.394730,-00000.573554,-00000.096336,-00000.564470,-00000.024710,00000.008164,-00000.185883
0000000000926,00002.409938,00001.744615,00001.845161,00003.447600,00002.655247,00002.764182,00002.646841,00003.102076,00002.453529,00002.394397,-00000.572958,-00000.096447,-00000.564606,-00000.025059,00000.007548,-00000.186214
0000000000927,00002.409961,00001.744788,00001.845113,00003.447363,00002.655612,00002.764079,00002.647056,00003.101834,00002.453616,00002.394533,-00000.572434,-00000.096523,-00000.564701,-00000.025389,00000.006950,-00000.186540
0000000000928,00002.410020,00001.744587,00001.845057,00003.446842,00002.655494,00002.763829,00002.647249,00003.101907,00002.453659,00002.394613,-00000.571564,-00000.096617,-00000.564817,-00000.025686,00000.006425,-00000.186822
0000000000929,00002.409677,00001.744372,00001.844654,00003.446641,00002.655079,00002.763742,00002.647070,00003.101339,00002.453733,00002.394366,-00000.570756,-00000.097044,-00000.564898,-00000.025967,00000.005916,-00000.186736
0000000000930,00002.409364,00001.744201,00001.844243,00003.446561,00002.654978,00002.763530,00002.646871,00003.101038,00002.453770,00002.394071,-00000.570015,-00000.097488,-00000.564997,-00000.026220,00000.005107,-00000.186614
0000000000931,00002.409072,00001.744018,00001.843899,00003.446389,00002.654625,00002.763455,00002.646718,00003.100917,00002.453833,00002.393861,-00000.569327,-00000.097851,-00000.565429,-00000.026460,00000.004311,-00000.186541
0000000000932,00002.409168,00001.743873,00001.843913,00003.446321,00002.654176,00002.763637,00002.646549,00003.101023,00002.453501,00002.393972,-00000.568333,-00000.098228,-00000.565875,-00000.027037,00000.003622,-00000.186437
0000000000933,00002.408919,00001.744080,00001.843620,00003.446175,00002.654238,00002.763574,00002.646781,00003.100920,00002.453555,00002.393794,-00000.567747,-00000.098538,-00000.566243,-00000.027604,00000.002219,-00000.186375
0000000000934,00002.408639,00001.744319,00001.843269,00003.446479,00002.654219,00002.763366,00002.646637,00003.100648,00002.453635,00002.393526,-00000.567264,-00000.098859,-00000.566623,-00000.028459,00000.000907,-00000.185923
0000000000935,00002.408427,00001.744132,00001.843383,00003.445992,00002.654271,00002.762949,00002.646472,00003.100560,00002.453318,00002.393374,-00000.566403,-00000.099123,-00000.566936,-00000.029304,-00000.000288,-00000.185507
0000000000936,00002.408551,00001.743973,00001.843083,00003.445889,00002.653892,00002.762772,00002.646350,00003.100692,00002.453387,00002.393508,-00000.565629,-00000.099396,-00000.567260,-00000.029669,-00000.001042,-00000.185486
0000000000937,00002.408733,00001.743814,00001.843180,00003.445474,00002.653937,00002.762417,00002.646210,00003.100617,00002.453117,00002.393742,-00000.564896,-00000.099621,-00000.567526,-00000.030026,-00000.001333,-00000.185495
0000000000938,00002.408476,00001.743678,00001.843288,00003.445386,00002.653977,00002.762267,00002.646105,00003.100366,00002.452812,00002.393856,-00000.564237,-00000.099853,-00000.567802,-00000.030336,-00000.001975,-00000.185476
0000000000939,00002.408268,00001.743906,00001.843371,00003.445759,00002.654016,00002.762690,00002.646349,00003.100665,00002.452945,00002.393692,-00000.563612,-00000.100044,-00000.568029,-00000.030640,-00000.002949,-00000.185484
0000000000940,00002.408412,00001.743790,00001.843463,00003.446046,00002.654050,00002.762925,00002.646260,00003.100814,00002.453049,00002.393427,-00000.563052,-00000.100605,-00000.568263,-00000.030904,-00000.004221,-00000.185105
0000000000941,00002.408598,00001.743984,00001.843533,00003.446001,00002.654445,00002.762923,00002.646467,00003.101069,00002.453162,00002.393650,-00000.562520,-00000.101131,-00000.568456,-00000.031163,-00000.005776,-00000.184749
0000000000942,00002.408358,00001.744248,00001.843249,00003.446246,00002.654474,00002.763123,00002.646754,00003.100833,00002.453250,00002.393424,-00000.561680,-00000.101245,-00000.568656,-00000.031388,-00000.006859,-00000.184427
0000000000943,00002.408154,00001.744413,00001.842946,00003.446207,00002.654448,00002.763121,00002.646930,00003.100687,00002.453346,00002.393251,-00000.560865,-00000.101330,-00000.568821,-00000.031608,-00000.007456,-00000.184124
0000000000944,00002.408312,00001.744638,00001.842704,00003.446415,00002.654472,00002.763291,00002.646812,00003.100123,00002.453059,00002.393059,-00000.560149,-00000.101790,-00000.568990,-00000.031800,-00000.008016,-00000.183849
0000000000945,00002.408501,00001.744779,00001.842446,00003.446745,00002.654087,00002.763652,00002.646599,00003.099999,00002.453141,00002.392912,-00000.559818,-00000.102225,-00000.569493,-00000.031987,-00000.008524,-00000.183591
0000000000946,00002.408635,00001.744608,00001.842602,00003.447286,00002.654108,00002.763797,00002.646499,00003.100245,00002.453259,00002.393111,-00000.559209,-00000.102254,-00000.569638,-00000.032513,-00000.009363,-00000.183358
0000000000947,00002.408796,00001.744364,00001.842745,00003.447203,00002.654506,00002.763741,00002.646318,00003.100502,00002.452966,00002.393349,-00000.558564,-00000.102624,-00000.569703,-00000.033035,-00000.010159,-00000.183138
0000000000948,00002.409273,00001.744219,00001.842879,00003.447663,00002.654161,00002.763502,00002.645869,00003.100348,00002.452703,00002.393156,-00000.558046,-00000.103012,-00000.569826,-00000.033120,-00000.010873,-00000.182939
0000000000949,00002.409410,00001.744374,00001.842638,00003.448319,00002.654137,00002.763817,00002.646078,00003.100204,00002.452817,00002.393358,-00000.557497,-00000.102964,-00000.569882,-00000.033202,-00000.011188,-00000.182752
0000000000950,00002.409817,00001.744250,00001.842751,00003.448711,00002.654206,00002.763976,00002.646059,00003.100436,00002.452593,00002.393556,-00000.557056,-00000.102931,-00000.569987,-00000.033274,-00000.011433,-00000.182583
0000000000951,00002.409933,00001.744383,00001.842546,00003.449269,00002.654186,00002.764245,00002.646236,00003.100314,00002.452690,00002.393365,-00000.556588,-00000.102891,-00000.570034,-00000.033344,-00000.011701,-00000.182061
0000000000952,00002.410279,00001.744277,00001.842643,00003.449602,00002.654244,00002.764380,00002.646220,00003.100511,00002.452862,00002.393534,-00000.556213,-00000.103225,-00000.570123,-00000.033406,-00000.011910,-00000.181554
0000000000953,00002.410741,00001.744027,00001.842831,00003.450077,00002.654227,00002.764609,00002.646009,00003.100770,00002.452582,00002.393735,-00000.555815,-00000.103554,-00000.570163,-00000.033465,-00000.012138,-00000.181109
0000000000954,00002.410673,00001.744300,00001.842913,00003.450724,00002.654640,00002.764724,00002.646720,00003.100575,00002.453091,00002.393878,-00000.555495,-00000.103839,-00000.570239,-00000.033517,-00000.012678,-00000.180678
0000000000955,00002.410703,00001.744450,00001.843074,00003.451491,00002.654625,00002.764919,00002.646903,00003.100432,00002.453215,00002.394049,-00000.555156,-00000.103755,-00000.569911,-00000.033568,-00000.012873,-00000.180299
0000000000956,00002.411008,00001.744320,00001.843506,00003.451679,00002.654976,00002.764654,00002.647146,00003.100630,00002.453286,00002.394171,-00000.554884,-00000.103635,-00000.569613,-00000.033612,-00000.012607,-00000.179932
0000000000957,00002.411034,00001.744447,00001.843643,00003.452332,00002.654964,00002.764820,00002.646939,00003.100508,00002.453392,00002.393954,-00000.554959,-00000.103564,-00000.569333,-00000.033655,-00000.012410,-00000.179610
0000000000958,00002.411293,00001.744699,00001.844011,00003.452855,00002.654900,00002.764957,00002.646783,00003.100676,00002.453452,00002.393695,-00000.555452,-00000.103825,-00000.569442,-00000.033693,-00000.012184,-00000.179297
0000000000959,00002.411678,00001.744808,00001.844127,00003.453411,00002.654889,00002.765098,00002.646607,00003.100935,00002.453542,00002.393873,-00000.555516,-00000.104127,-00000.569567,-00000.033730,-00000.012015,-00000.179023
0000000000960,00002.411536,00001.744659,00001.844078,00003.453130,00002.655198,00002.764852,00002.646837,00003.100715,00002.453594,00002.394015,-00000.555936,-00000.103986,-00000.569660,-00000.033762,-00000.011823,-00000.178394
0000000000961,00002.411138,00001.744752,00001.843814,00003.452515,00002.655189,00002.764610,00002.647049,00003.100573,00002.453670,00002.394167,-00000.556353,-00000.104244,-00000.569766,-00000.033793,-00000.012043,-00000.178161
0000000000962,00002.411018,00001.744625,00001.843410,00003.452276,00002.655089,00002.764763,00002.646883,00003.100749,00002.453714,00002.394288,-00000.556711,-00000.104486,-00000.569845,-00000.033821,-00000.012242,-00000.177988
0000000000963,00002.410679,00001.744341,00001.843185,00003.451753,00002.655444,00002.764557,00002.647064,00003.100991,00002.453416,00002.394417,-00000.557066,-00000.104705,-00000.569935,-00000.033847,-00000.012066,-00000.177789
0000000000964,00002.410213,00001.744234,00001.842841,00003.451186,00002.654996,00002.764325,00002.646922,00003.100414,00002.453091,00002.394157,-00000.557370,-00000.104912,-00000.570002,-00000.033871,-00000.011510,-00000.177279
0000000000965,00002.409925,00001.743992,00001.842649,00003.450741,00002.655298,00002.764149,00002.647076,00003.100620,00002.452838,00002.394267,-00000.557672,-00000.105099,-00000.570079,-00000.033893,-00000.010997,-00000.176747
0000000000966,00002.409528,00001.743900,00001.842356,00003.450621,00002.654917,00002.763951,00002.646955,00003.100493,00002.452560,00002.394046,-00000.557932,-00000.105275,-00000.570137,-00000.033913,-00000.010887,-00000.176314
0000000000967,00002.409283,00001.743695,00001.842556,00003.450242,00002.655174,00002.764164,00002.646723,00003.100668,00002.452345,00002.394139,-00000.558189,-00000.105071,-00000.570202,-00000.033933,-00000.010813,-00000.175861
0000000000968,00002.408945,00001.743617,00001.842306,00003.449778,00002.655212,00002.763633,00002.646983,00003.100559,00002.452109,00002.394314,-00000.558410,-00000.105220,-00000.570251,-00000.033949,-00000.010719,-00000.175854
0000000000969,00002.409099,00001.743441,00001.842114,00003.450180,00002.655068,00002.763815,00002.646786,00003.100708,00002.451925,00002.394393,-00000.558629,-00000.105409,-00000.570307,-00000.033966,-00000.010656,-00000.175831
0000000000970,00002.408812,00001.743375,00001.841901,00003.449785,00002.655101,00002.763725,00002.647007,00003.100616,00002.452087,00002.394179,-00000.559179,-00000.105537,-00000.570348,-00000.033980,-00000.010576,-00000.175826
0000000000971,00002.408580,00001.742863,00001.841737,00003.449402,00002.654978,00002.763517,00002.646839,00003.100380,00002.451931,00002.394247,-00000.559366,-00000.105335,-00000.570396,-00000.033994,-00000.010523,-00000.175806
0000000000972,00002.408698,00001.742444,00001.841557,00003.449428,00002.654643,00002.763441,00002.646665,00003.100301,00002.451706,00002.394428,-00000.559835,-00000.105081,-00000.570068,-00000.034007,-00000.010817,-00000.175801
0000000000973,00002.408501,00001.742371,00001.841417,00003.449102,00002.654539,00002.763264,00002.646884,00003.100101,00002.451936,00002.394485,-00000.560356,-00000.104909,-00000.569746,-00000.034018,-00000.011498,-00000.175785
0000000000974,00002.408239,00001.742377,00001.841263,00003.449125,00002.654617,00002.763199,00002.647099,00003.100034,00002.452107,00002.394639,-00000.560755,-00000.104693,-00000.569467,-00000.034029,-00000.012111,-00000.175781
0000000000975,00002.408071,00001.741952,00001.841144,00003.448847,00002.654528,00002.763048,00002.647286,00003.099863,00002.451940,00002.394688,-00000.561562,-00000.104546,-00000.569555,-00000.034039,-00000.012690,-00000.175767
0000000000976,00002.407847,00001.741957,00001.841013,00003.448504,00002.654957,00002.762630,00002.647468,00003.099806,00002.451723,00002.394819,-00000.562264,-00000.104362,-00000.569681,-00000.034411,-00000.013575,-00000.175763
0000000000977,00002.408430,00001.741958,00001.841275,00003.448993,00002.654881,00002.762864,00002.647628,00003.100023,00002.451580,00002.394861,-00000.562951,-00000.104600,-00000.569756,-00000.034419,-00000.014068,-00000.175751
0000000000978,00002.408603,00001.741962,00001.841526,00003.449063,00002.654883,00002.762872,00002.647420,00003.100337,00002.451396,00002.394972,-00000.563549,-00000.104444,-00000.569863,-00000.034373,-00000.014096,-00000.175748
0000000000979,00002.408373,00001.741600,00001.841386,00003.448754,00002.654819,00002.762708,00002.647193,00003.100160,00002.451275,00002.395007,-00000.564497,-00000.104284,-00000.569927,-00000.034380,-00000.014153,-00000.175738
0000000000980,00002.408157,00001.741241,00001.841237,00003.448451,00002.655184,00002.762714,00002.647016,00003.100427,00002.451117,00002.395102,-00000.565369,-00000.104513,-00000.570018,-00000.034341,-00000.014540,-00000.176099
0000000000981,00002.407962,00001.741295,00001.841118,00003.448551,00002.654766,00002.762575,00002.646823,00003.100276,00002.451014,00002.394770,-00000.566538,-00000.104377,-00000.570072,-00000.034710,-00000.015314,-00000.176090
0000000000982,00002.407778,00001.741352,00001.840991,00003.448656,00002.654714,00002.762217,00002.646673,00003.099778,00002.451243,00002.394488,-00000.568006,-00000.104209,-00000.570150,-00000.035039,-00000.016006,-00000.176034
0000000000983,00002.407612,00001.741399,00001.841252,00003.448378,00002.655084,00002.762099,00002.646508,00003.100012,00002.451155,00002.394567,-00000.569364,-00000.104093,-00000.569833,-00000.034990,-00000.017027,-00000.176026
0000000000984,00002.407818,00001.741085,00001.841144,00003.448104,00002.655039,00002.762157,00002.646380,00003.100313,00002.450987,00002.394690,-00000.570976,-00000.103951,-00000.569899,-00000.034908,-00000.017616,-00000.176341
0000000000985,00002.408039,00001.740761,00001.841004,00003.447868,00002.654992,00002.762057,00002.646240,00003.100513,00002.450913,00002.394758,-00000.572496,-00000.103852,-00000.569993,-00000.034866,-00000.018123,-00000.176698
0000000000986,00002.408215,00001.740494,00001.841275,00003.447635,00002.654954,00002.762106,00002.646131,00003.100770,00002.450770,00002.394862,-00000.574231,-00000.103730,-00000.570049,-00000.034796,-00000.018625,-00000.176966
0000000000987,00002.408041,00001.740219,00001.841155,00003.447071,00002.654913,00002.762020,00002.646012,00003.100576,00002.450706,00002.394920,-00000.575887,-00000.104009,-00000.569765,-00000.035124,-00000.019056,-00000.177270
0000000000988,00002.407827,00001.740354,00001.841023,00003.446510,00002.655244,00002.761700,00002.646282,00003.100432,00002.450584,00002.395009,-00000.577364,-00000.103906,-00000.569813,-00000.035427,-00000.019483,-00000.177135
0000000000989,00002.407679,00001.740482,00001.840921,00003.446755,00002.655209,00002.761627,00002.646180,00003.100268,00002.450893,00002.394695,-00000.578411,-00000.103780,-00000.569935,-00000.035705,-00000.019851,-00000.177031
0000000000990,00002.407497,00001.740960,00001.840809,00003.446277,00002.655128,00002.761354,00002.646410,00003.100145,00002.450789,00002.394771,-00000.579306,-00000.103692,-00000.569976,-00000.035601,-00000.020214,-00000.176916
0000000000991,00002.407734,00001.741070,00001.841085,00003.446123,00002.655098,00002.761292,00002.646323,00003.100368,00002.450689,00002.394867,-00000.580560,-00000.103586,-00000.569716,-00000.035475,-00000.020527,-00000.177190
0000000000992,00002.407579,00001.741114,00001.840989,00003.445717,00002.655029,00002.761059,00002.646519,00003.100263,00002.450964,00002.394931,-00000.581685,-00000.103511,-00000.569751,-00000.035386,-00000.020473,-00000.177455
0000000000993,00002.407418,00001.741207,00001.840862,00003.445949,00002.655004,00002.761007,00002.646808,00003.100090,00002.451242,00002.394650,-00000.582752,-00000.103420,-00000.569893,-00000.035279,-00000.020740,-00000.177326
0000000000994,00002.407649,00001.741244,00001.841143,00003.445602,00002.654945,00002.761172,00002.646612,00003.100364,00002.451113,00002.394705,-00000.583710,-00000.103356,-00000.569923,-00000.035203,-00000.021057,-00000.177189
0000000000995,00002.407874,00001.741324,00001.841397,00003.445437,00002.654561,00002.761126,00002.646133,00003.100579,00002.450986,00002.394828,-00000.584619,-00000.103278,-00000.569681,-00000.035112,-00000.021283,-00000.177079
0000000000996,00002.408071,00001.741355,00001.841274,00003.445505,00002.654148,00002.761267,00002.645966,00003.100813,00002.450876,00002.394875,-00000.585434,-00000.103224,-00000.569343,-00000.035047,-00000.021554,-00000.176962
0000000000997,00002.407900,00001.741423,00001.841127,00003.445364,00002.653821,00002.761229,00002.645920,00003.100633,00002.450769,00002.394617,-00000.586207,-00000.103158,-00000.569500,-00000.034970,-00000.021747,-00000.177231
0000000000998,00002.408067,00001.741450,00001.841385,00003.445059,00002.653832,00002.761348,00002.645778,00003.100832,00002.450675,00002.394657,-00000.587264,-00000.103112,-00000.569212,-00000.034915,-00000.021977,-00000.177494
0000000000999,00002.408285,00001.741508,00001.841623,00003.444577,00002.654279,00002.761316,00002.646102,00003.101042,00002.450583,00002.394800,-00000.588285,-00000.103056,-00000.569346,-00000.034849,-00000.022141,-00000.177361
0000000001000,00002.408427,00001.741531,00001.841842,00003.444317,00002.654289,00002.761417,00002.645981,00003.101211,00002.450504,00002.394834,-00000.588822,-00000.103017,-00000.569101,-00000.034802,-00000.022699,-00000.177222
0000000001001,00002.408612,00001.741580,00001.842045,00003.444269,00002.654307,00002.761752,00002.645894,00003.101389,00002.450789,00002.395319,-00000.589692,-00000.102969,-00000.568852,-00000.034746,-00000.023202,-00000.177108
0000000001002,00002.408734,00001.741599,00001.842232,00003.444411,00002.654315,00002.761839,00002.645791,00003.101533,00002.450721,00002.395348,-00000.590511,-00000.102935,-00000.568644,-00000.034706,-00000.023677,-00000.176990
0000000001003,00002.408891,00001.741641,00001.842042,00003.444370,00002.653967,00002.762124,00002.645718,00003.101323,00002.450963,00002.395035,-00000.591614,-00000.102895,-00000.568432,-00000.034659,-00000.023743,-00000.177256
0000000001004,00002.408994,00001.741658,00001.842201,00003.444491,00002.653974,00002.762198,00002.645630,00003.101445,00002.450906,00002.395060,-00000.592675,-00000.102866,-00000.567892,-00000.034625,-00000.023422,-00000.177156
0000000001005,00002.408765,00001.742056,00001.842039,00003.444456,00002.654041,00002.761715,00002.645567,00003.100903,00002.451112,00002.394793,-00000.593614,-00000.102469,-00000.567711,-00000.034221,-00000.023477,-00000.177382
0000000001006,00002.408491,00001.742070,00001.842174,00003.444196,00002.654047,00002.761778,00002.645855,00003.100644,00002.451063,00002.394814,-00000.594517,-00000.102082,-00000.567251,-00000.034192,-00000.023567,-00000.177659
0000000001007,00002.407933,00001.742409,00001.842036,00003.443803,00002.654104,00002.761367,00002.645802,00003.100546,00002.450876,00002.394587,-00000.595316,-00000.101743,-00000.567098,-00000.033849,-00000.023977,-00000.177852
0000000001008,00002.408062,00001.742421,00001.841789,00003.443945,00002.653746,00002.761420,00002.645684,00003.100326,00002.450834,00002.394242,-00000.596085,-00000.101777,-00000.567069,-00000.033824,-00000.024053,-00000.178088
0000000001009,00002.407950,00001.741984,00001.842034,00003.443973,00002.653795,00002.761433,00002.645638,00003.100605,00002.450312,00002.394412,-00000.596765,-00000.101489,-00000.566938,-00000.033532,-00000.024039,-00000.177889
0000000001010,00002.407334,00001.741632,00001.841824,00003.443731,00002.653853,00002.761479,00002.645538,00003.100780,00002.449914,00002.394844,-00000.597057,-00000.101154,-00000.566914,-00000.033148,-00000.024104,-00000.177727
0000000001011,00002.406876,00001.741260,00001.841670,00003.443755,00002.653531,00002.761127,00002.645137,00003.101017,00002.449469,00002.394989,-00000.597273,-00000.100909,-00000.566803,-00000.032899,-00000.023730,-00000.177558
0000000001012,00002.406352,00001.740960,00001.841490,00003.443912,00002.653218,00002.760803,00002.644689,00003.100804,00002.449130,00002.394993,-00000.597159,-00000.100624,-00000.566419,-00000.032572,-00000.023422,-00000.177420
0000000001013,00002.405599,00001.740643,00001.841359,00003.443570,00002.653307,00002.759778,00002.645072,00003.100643,00002.448752,00002.395116,-00000.597343,-00000.100416,-00000.566324,-00000.032361,-00000.023104,-00000.177276
0000000001014,00002.405153,00001.740388,00001.841207,00003.443703,00002.653040,00002.758777,00002.645054,00003.100099,00002.448463,00002.394758,-00000.597246,-00000.100173,-00000.565998,-00000.032082,-00000.023205,-00000.177159
0000000001015,00002.404875,00001.740118,00001.841095,00003.443775,00002.652754,00002.758267,00002.645018,00003.100325,00002.448141,00002.394500,-00000.597040,-00000.100358,-00000.565554,-00000.031902,-00000.022933,-00000.177036
0000000001016,00002.404495,00001.739901,00001.840965,00003.443888,00002.652527,00002.757777,00002.645002,00003.100587,00002.447895,00002.394194,-00000.596957,-00000.100152,-00000.565276,-00000.031302,-00000.022656,-00000.176937
0000000001017,00002.404258,00001.739671,00001.840870,00003.443586,00002.652645,00002.756980,00002.644971,00003.100416,00002.447258,00002.393975,-00000.596781,-00000.099947,-00000.564899,-00000.031149,-00000.022425,-00000.176832
0000000001018,00002.403572,00001.739849,00001.840759,00003.443683,00002.652815,00002.756200,00002.645321,00003.100276,00002.447412,00002.393715,-00000.596711,-00000.099771,-00000.564662,-00000.031001,-00000.022553,-00000.176747
0000000001019,00002.403008,00001.740016,00001.840316,00003.443789,00002.652553,00002.755522,00002.645294,00003.099769,00002.447232,00002.393528,-00000.596561,-00000.099596,-00000.564341,-00000.030871,-00000.022719,-00000.176658
0000000001020,00002.402424,00001.740167,00001.840222,00003.444234,00002.652334,00002.755221,00002.645592,00003.099650,00002.447363,00002.393307,-00000.596501,-00000.099447,-00000.564502,-00000.030745,-00000.022464,-00000.176586
0000000001021,00002.401943,00001.739947,00001.840207,00003.443961,00002.652474,00002.754644,00002.645932,00003.099580,00002.447573,00002.393147,-00000.596374,-00000.099298,-00000.564591,-00000.030634,-00000.022243,-00000.176510
0000000001022,00002.401809,00001.739713,00001.840127,00003.443614,00002.652651,00002.754025,00002.645823,00003.099842,00002.447321,00002.393322,-00000.596323,-00000.099534,-00000.564728,-00000.030527,-00000.022026,-00000.176449
0000000001023,00002.401400,00001.739526,00001.839751,00003.443745,00002.652407,00002.753533,00002.646113,00003.099782,00002.447500,00002.393186,-00000.596215,-00000.099407,-00000.564804,-00000.030432,-00000.021838,-00000.176384
0000000001024,00002.401285,00001.739689,00001.839683,00003.443812,00002.652558,00002.753006,00002.646382,00003.099642,00002.447649,00002.392972,-00000.596534,-00000.099607,-00000.564921,-00000.030341,-00000.022016,-00000.176332
0000000001025,00002.401663,00001.739530,00001.839726,00003.443924,00002.652350,00002.752950,00002.646266,00003.099592,00002.447438,00002.392857,-00000.596805,-00000.099862,-00000.564986,-00000.030260,-00000.021855,-00000.176277
0000000001026,00002.401565,00001.739306,00001.840031,00003.443618,00002.652478,00002.752502,00002.646133,00003.099835,00002.447202,00002.393037,-00000.597439,-00000.100033,-00000.565085,-00000.030183,-00000.021645,-00000.176232
0000000001027,00002.401524,00001.739170,00001.840067,00003.443713,00002.652302,00002.752091,00002.645671,00003.099792,00002.447023,00002.392939,-00000.598033,-00000.100250,-00000.565141,-00000.030114,-00000.021508,-00000.176186
0000000001028,00002.401441,00001.738980,00001.839964,00003.443816,00002.652048,00002.751710,00002.645195,00003.100000,00002.446822,00002.392729,-00000.598573,-00000.100033,-00000.564862,-00000.030048,-00000.020966,-00000.176148
0000000001029,00002.401405,00001.739227,00001.839995,00003.443897,00002.651898,00002.751360,00002.645164,00003.099963,00002.446669,00002.392646,-00000.599078,-00000.099855,-00000.564546,-00000.029990,-00000.020849,-00000.176108
0000000001030,00002.400972,00001.739065,00001.839544,00003.443621,00002.651682,00002.750672,00002.645122,00003.099414,00002.446498,00002.392105,-00000.599900,-00000.099670,-00000.564673,-00000.029933,-00000.020750,-00000.176076
0000000001031,00002.400579,00001.739275,00001.839208,00003.443690,00002.651554,00002.750375,00002.645459,00003.099383,00002.446368,00002.391671,-00000.600693,-00000.099518,-00000.564404,-00000.029884,-00000.021014,-00000.176042
0000000001032,00002.400573,00001.739137,00001.839187,00003.443819,00002.651370,00002.750152,00002.645423,00003.099278,00002.446222,00002.391573,-00000.601756,-00000.099360,-00000.564148,-00000.029836,-00000.021293,-00000.175652
0000000001033,00002.400601,00001.738954,00001.839264,00003.443877,00002.651261,00002.750625,00002.645347,00003.099614,00002.446111,00002.391567,-00000.602794,-00000.099231,-00000.563919,-00000.029793,-00000.021517,-00000.175260
0000000001034,00002.400596,00001.738836,00001.839246,00003.443986,00002.651104,00002.751161,00002.645316,00003.099888,00002.445987,00002.391483,-00000.603699,-00000.099097,-00000.563702,-00000.029753,-00000.021754,-00000.174928
0000000001035,00002.400257,00001.738680,00001.838949,00003.444036,00002.651011,00002.751563,00002.645251,00003.099812,00002.446256,00002.391478,-00000.604582,-00000.098987,-00000.563870,-00000.029717,-00000.022308,-00000.174594
0000000001036,00002.400253,00001.738943,00001.838933,00003.444129,00002.651241,00002.752019,00002.645588,00003.099682,00002.446513,00002.391407,-00000.604990,-00000.098873,-00000.563684,-00000.029682,-00000.022873,-00000.174311
0000000001037,00002.400327,00001.738809,00001.839043,00003.444172,00002.651162,00002.752724,00002.645533,00003.099980,00002.446379,00002.391402,-00000.605742,-00000.098780,-00000.563827,-00000.029651,-00000.022619,-00000.174028
0000000001038,00002.399961,00001.738670,00001.839030,00003.443888,00002.651357,00002.753113,00002.645819,00003.099869,00002.446235,00002.391342,-00000.606815,-00000.098682,-00000.563670,-00000.029622,-00000.022011,-00000.173787
0000000001039,00002.400024,00001.738194,00001.839123,00003.443561,00002.651290,00002.753350,00002.645410,00003.099760,00002.445758,00002.391338,-00000.607818,-00000.098603,-00000.563429,-00000.029596,-00000.021795,-00000.173182
0000000001040,00002.400075,00001.737713,00001.839112,00003.443320,00002.651456,00002.753681,00002.644928,00003.100028,00002.445636,00002.391286,-00000.609093,-00000.098157,-00000.563294,-00000.029571,-00000.022003,-00000.172615
0000000001041,00002.399766,00001.737671,00001.839191,00003.443405,00002.651399,00002.753883,00002.644942,00003.099935,00002.445593,00002.390920,-00000.610673,-00000.098090,-00000.563089,-00000.029548,-00000.022182,-00000.172100
0000000001042,00002.399446,00001.737624,00001.839182,00003.443562,00002.651541,00002.754165,00002.645257,00003.099801,00002.445851,00002.390876,-00000.612847,-00000.098073,-00000.562975,-00000.029527,-00000.022359,-00000.171254
0000000001043,00002.399184,00001.737588,00001.839249,00003.443271,00002.651855,00002.754337,00002.645632,00003.100085,00002.445814,00002.390927,-00000.615643,-00000.097653,-00000.562437,-00000.029508,-00000.022512,-00000.170816
0000000001044,00002.398911,00001.737548,00001.839241,00003.442680,00002.651975,00002.753488,00002.645538,00003.099971,00002.446034,00002.390890,-00000.619308,-00000.097276,-00000.561977,-00000.029490,-00000.023025,-00000.170458
0000000001045,00002.398688,00001.737517,00001.838936,00003.442795,00002.651880,00002.753635,00002.645494,00003.099849,00002.446003,00002.390208,-00000.623865,-00000.096918,-00000.561520,-00000.029474,-00000.023880,-00000.169723
0000000001046,00002.398819,00001.737120,00001.838929,00003.442291,00002.651257,00002.754000,00002.645051,00003.099752,00002.445465,00002.389088,-00000.629888,-00000.096234,-00000.560765,-00000.029458,-00000.024681,-00000.169056
0000000001047,00002.398991,00001.736731,00001.839032,00003.441664,00002.651539,00002.754125,00002.645014,00003.100011,00002.445075,00002.387782,-00000.638120,-00000.095567,-00000.560013,-00000.029082,-00000.025771,-00000.169155
0000000001048,00002.398377,00001.736393,00001.838301,00003.441235,00002.651371,00002.754074,00002.644637,00003.099566,00002.444617,00002.385740,-00000.647601,-00000.094985,-00000.559008,-00000.029068,-00000.027178,-00000.168950
0000000001049,00002.398161,00001.735699,00001.838388,00003.440338,00002.651248,00002.754180,00002.644243,00003.099787,00002.443923,00002.383902,-00000.658600,-00000.094416,-00000.558005,-00000.028748,-00000.028469,-00000.168672
0000000001050,00002.398001,00001.735049,00001.838129,00003.439248,00002.651105,00002.753774,00002.644284,00003.100133,00002.442807,00002.382164,-00000.671750,-00000.093921,-00000.557149,-00000.028374,-00000.030030,-00000.168860
0000000001051,00002.397454,00001.734458,00001.837478,00003.438484,00002.650638,00002.752776,00002.643586,00003.099958,00002.442216,00002.378785,-00000.687281,-00000.092349,-00000.555569,-00000.027375,-00000.032580,-00000.169348
0000000001052,00002.396955,00001.733179,00001.836894,00003.437193,00002.650154,00002.751341,00002.642533,00003.099528,00002.440904,00002.374041,-00000.704280,-00000.090839,-00000.553753,-00000.025969,-00000.035722,-00000.170234
0000000001053,00002.396490,00001.731588,00001.835977,00003.435817,00002.649756,00002.750129,00002.641575,00003.099742,00002.439675,00002.369351,-00000.722581,-00000.089138,-00000.552045,-00000.025119,-00000.038982,-00000.170650
0000000001054,00002.396065,00001.729773,00001.834754,00003.434718,00002.648981,00002.748908,00002.640316,00003.099738,00002.438195,00002.364223,-00000.741406,-00000.087489,-00000.550499,-00000.024284,-00000.042020,-00000.170679
0000000001055,00002.394943,00001.728056,00001.833248,00003.433184,00002.648279,00002.747150,00002.639501,00003.099194,00002.436786,00002.358779,-00000.762064,-00000.086404,-00000.549045,-00000.023198,-00000.044432,-00000.170307
0000000001056,00002.394219,00001.725786,00001.831844,00003.431523,00002.647619,00002.745748,00002.638429,00003.098828,00002.435526,00002.353688,-00000.783894,-00000.085001,-00000.547365,-00000.021761,-00000.046655,-00000.169969
0000000001057,00002.393264,00001.723235,00001.830562,00003.429854,00002.647022,00002.743888,00002.637735,00003.098728,00002.434326,00002.348691,-00000.807286,-00000.083714,-00000.545402,-00000.020474,-00000.049072,-00000.170015
0000000001058,00002.392647,00001.720577,00001.829367,00003.428803,00002.645735,00002.742695,00002.636460,00003.098780,00002.432891,00002.343269,-00000.832400,-00000.082519,-00000.543610,-00000.019251,-00000.051327,-00000.170453
0000000001059,00002.391834,00001.717680,00001.827912,00003.427745,00002.644500,00002.740749,00002.635144,00003.098332,00002.431507,00002.337927,-00000.858481,-00000.081424,-00000.541576,-00000.017792,-00000.053747,-00000.171581
0000000001060,00002.390947,00001.715054,00001.825807,00003.426487,00002.643405,00002.737193,00002.634058,00003.098013,00002.430285,00002.332585,-00000.886754,-00000.080407,-00000.539687,-00000.016388,-00000.056030,-00000.173404
0000000001061,00002.390255,00001.711862,00001.823843,00003.424136,00002.642354,00002.731184,00002.632575,00003.097631,00002.428381,00002.326949,-00000.917663,-00000.079837,-00000.537956,-00000.015146,-00000.058090,-00000.175453
0000000001062,00002.389136,00001.708902,00001.822050,00003.421613,00002.641058,00002.725617,00002.631288,00003.097722,00002.426253,00002.320588,-00000.953341,-00000.079334,-00000.535985,-00000.013589,-00000.060396,-00000.178094
0000000001063,00002.387821,00001.705822,00001.820379,00003.419249,00002.639801,00002.720501,00002.630025,00003.097761,00002.424269,00002.313976,-00000.990175,-00000.078849,-00000.533785,-00000.012168,-00000.062875,-00000.181289
0000000001064,00002.386506,00001.702938,00001.818490,00003.417102,00002.638698,00002.715399,00002.628929,00003.097475,00002.422457,00002.306746,-00001.027441,-00000.078421,-00000.531745,-00000.010480,-00000.065564,-00000.184625
0000000001065,00002.385387,00001.700316,00001.816341,00003.414726,00002.636902,00002.710681,00002.627491,00003.097145,00002.420406,00002.298941,-00001.065691,-00000.078371,-00000.529872,-00000.008908,-00000.068400,-00000.188071
0000000001066,00002.383905,00001.697499,00001.814008,00003.412535,00002.635238,00002.706338,00002.626196,00003.096539,00002.418138,00002.290972,-00001.104671,-00000.078369,-00000.528135,-00000.007107,-00000.071052,-00000.191637
0000000001067,00002.382226,00001.694904,00001.811453,00003.410150,00002.633709,00002.701596,00002.624972,00003.096258,00002.416392,00002.282876,-00001.145578,-00000.079052,-00000.526541,-00000.005044,-00000.073466,-00000.196021
0000000001068,00002.380965,00001.692143,00001.809466,00003.407197,00002.632655,00002.697173,00002.623869,00003.096105,00002.414098,00002.275005,-00001.187469,-00000.080139,-00000.525425,-00000.003148,-00000.075724,-00000.200871
0000000001069,00002.379173,00001.689571,00001.806929,00003.403352,00002.630991,00002.693136,00002.622827,00003.095866,00002.412248,00002.267387,-00001.229185,-00000.081446,-00000.524431,-00000.001391,-00000.077416,-00000.205692
0000000001070,00002.377736,00001.687220,00001.804512,00003.399750,00002.629730,00002.689008,00002.621888,00003.095736,00002.410659,00002.259960,-00001.268475,-00000.083097,-00000.524207,-00000.000140,-00000.079338,-00000.210183
0000000001071,00002.376573,00001.685031,00001.802352,00003.395751,00002.628676,00002.684846,00002.621001,00003.095532,00002.408721,00002.252749,-00001.306528,-00000.084572,-00000.523723,00000.001355,-00000.081142,-00000.214650
0000000001072,00002.375350,00001.682667,00001.800657,00003.391959,00002.627604,00002.680606,00002.619839,00003.095784,00002.406642,00002.245701,-00001.342878,-00000.086340,-00000.523532,00000.002783,-00000.082778,-00000.218836
0000000001073,00002.374361,00001.680441,00001.798818,00003.388918,00002.626343,00002.676700,00002.618721,00003.095611,00002.404993,00002.239200,-00001.376361,-00000.088322,-00000.524209,00000.004056,-00000.083588,-00000.221550
0000000001074,00002.372956,00001.678428,00001.797013,00003.385689,00002.625430,00002.673091,00002.617732,00003.095826,00002.403223,00002.232837,-00001.408394,-00000.090916,-00000.524772,00000.005271,-00000.083892,-00000.223300
0000000001075,00002.372114,00001.676533,00001.795447,00003.382375,00002.624720,00002.669403,00002.616780,00003.096041,00002.401457,00002.226577,-00001.438349,-00000.093328,-00000.525348,00000.005992,-00000.083856,-00000.224159
0000000001076,00002.370919,00001.675182,00001.793910,00003.378901,00002.623580,00002.665968,00002.616301,00003.095861,00002.400313,00002.220435,-00001.464893,-00000.095536,-00000.526190,00000.006664,-00000.084115,-00000.224561
0000000001077,00002.369839,00001.673932,00001.792577,00003.376079,00002.622613,00002.662828,00002.615854,00003.095681,00002.399172,00002.214380,-00001.487854,-00000.097953,-00000.527043,00000.006915,-00000.084447,-00000.224567
0000000001078,00002.368821,00001.672782,00001.791269,00003.373122,00002.622368,00002.659904,00002.615445,00003.095528,00002.397835,00002.209151,-00001.506823,-00000.100195,-00000.528485,00000.007124,-00000.084305,-00000.224183
0000000001079,00002.368264,00001.671717,00001.790497,00003.370720,00002.621907,00002.657594,00002.615065,00003.095737,00002.396864,00002.203997,-00001.521653,-00000.102615,-00000.530300,00000.006975,-00000.083136,-00000.223462
0000000001080,00002.368124,00001.671101,00001.789746,00003.368565,00002.620973,00002.655467,00002.614354,00003.095970,00002.395726,00002.199183,-00001.534537,-00000.104887,-00000.531891,00000.007153,-00000.081564,-00000.222410
0000000001081,00002.367650,00001.670558,00001.789089,00003.366157,00002.620581,00002.653500,00002.614030,00003.096148,00002.394899,00002.194795,-00001.545711,-00000.106947,-00000.533436,00000.007026,-00000.080207,-00000.221071
0000000001082,00002.367530,00001.670033,00001.788450,00003.364323,00002.620148,00002.652052,00002.613788,00003.096346,00002.394293,00002.190696,-00001.555590,-00000.108881,-00000.534790,00000.006452,-00000.079957,-00000.219812
0000000001083,00002.367127,00001.669570,00001.787528,00003.362636,00002.619452,00002.650378,00002.613512,00003.096135,00002.393589,00002.186598,-00001.563651,-00000.110272,-00000.535742,00000.006344,-00000.080615,-00000.218309
0000000001084,00002.366299,00001.669124,00001.786621,00003.360712,00002.618721,00002.648420,00002.613307,00003.095578,00002.393073,00002.182747,-00001.570247,-00000.111556,-00000.536895,00000.005856,-00000.081490,-00000.216875
0000000001085,00002.366319,00001.668730,00001.786198,00003.358913,00002.618128,00002.646995,00002.612709,00003.095762,00002.392111,00002.179620,-00001.576384,-00000.112740,-00000.538069,00000.005764,-00000.082414,-00000.215596
0000000001086,00002.366340,00001.668350,00001.785789,00003.356912,00002.617868,00002.645328,00002.612534,00003.096013,00002.391672,00002.176704,-00001.583088,-00000.113470,-00000.538687,00000.005711,-00000.083159,-00000.214375
0000000001087,00002.366356,00001.668015,00001.785430,00003.355743,00002.617726,00002.644115,00002.612387,00003.096169,00002.391215,00002.174043,-00001.589401,-00000.114115,-00000.538961,00000.005632,-00000.083945,-00000.212923
0000000001088,00002.366374,00001.668054,00001.784718,00003.354765,00002.617505,00002.643059,00002.612238,00003.096020,00002.390479,00002.171561,-00001.594745,-00000.114736,-00000.539124,00000.005224,-00000.084579,-00000.211158
0000000001089,00002.366751,00001.667769,00001.784412,00003.353771,00002.617384,00002.642026,00002.612114,00003.096153,00002.389728,00002.169295,-00001.599393,-00000.115286,-00000.539357,00000.004795,-00000.085248,-00000.209559
0000000001090,00002.366766,00001.667439,00001.784170,00003.352575,00002.617196,00002.640764,00002.611987,00003.096389,00002.389101,00002.167182,-00001.602854,-00000.116178,-00000.539859,00000.004447,-00000.085789,-00000.207694
0000000001091,00002.367087,00001.667196,00001.783546,00003.351003,00002.617093,00002.639522,00002.611881,00003.096139,00002.388461,00002.164890,-00001.606086,-00000.117371,-00000.540783,00000.004082,-00000.085632,-00000.205970
0000000001092,00002.367100,00001.667279,00001.782977,00003.349985,00002.616933,00002.638448,00002.611773,00003.095977,00002.388290,00002.163091,-00001.609395,-00000.118493,-00000.541574,00000.003786,-00000.084641,-00000.204745
0000000001093,00002.367736,00001.667072,00001.782809,00003.349010,00002.616846,00002.637753,00002.611683,00003.096128,00002.388108,00002.161503,-00001.613235,-00000.119509,-00000.542360,00000.003838,-00000.083783,-00000.204003
0000000001094,00002.368473,00001.667142,00001.782324,00003.348506,00002.616709,00002.637201,00002.611591,00003.095990,00002.387963,00002.159609,-00001.617866,-00000.120464,-00000.542670,00000.003949,-00000.083302,-00000.203685
0000000001095,00002.369377,00001.667329,00001.782181,00003.347675,00002.616635,00002.636610,00002.611514,00003.096118,00002.387445,00002.157894,-00001.622948,-00000.120966,-00000.542977,00000.003993,-00000.083659,-00000.203779
0000000001096,00002.370004,00001.667388,00001.782131,00003.346884,00002.616882,00002.635777,00002.611436,00003.096363,00002.387322,00002.156645,-00001.628705,-00000.121779,-00000.543603,00000.003724,-00000.083975,-00000.204235
0000000001097,00002.370048,00001.667547,00001.781647,00003.345814,00002.616818,00002.634548,00002.611733,00003.096472,00002.387244,00002.155185,-00001.635208,-00000.122569,-00000.544227,00000.003399,-00000.083917,-00000.204678
0000000001098,00002.370582,00001.667598,00001.781242,00003.344778,00002.617028,00002.633840,00002.611666,00003.096681,00002.387138,00002.153758,-00001.642285,-00000.123624,-00000.544761,00000.002808,-00000.083460,-00000.205065
0000000001099,00002.370982,00001.667371,00001.780829,00003.343867,00002.617337,00002.632794,00002.611920,00003.096774,00002.386709,00002.152516,-00001.649998,-00000.124659,-00000.545292,00000.002168,-00000.082685,-00000.205442
0000000001100,00002.371437,00001.667051,00001.780847,00003.342622,00002.617153,00002.631827,00002.611500,00003.096952,00002.385894,00002.150938,-00001.657837,-00000.125557,-00000.545746,00000.001665,-00000.081571,-00000.206498
0000000001101,00002.371778,00001.667220,00001.780496,00003.342209,00002.617053,00002.631300,00002.611353,00003.096668,00002.385892,00002.149518,-00001.665492,-00000.126802,-00000.546198,00000.001483,-00000.080548,-00000.208270
0000000001102,00002.371802,00001.666948,00001.780149,00003.341875,00002.616534,00002.630840,00002.611359,00003.096456,00002.385923,00002.147812,-00001.673616,-00000.127566,-00000.546585,00000.001417,-00000.079237,-00000.209894
0000000001103,00002.371366,00001.666729,00001.779850,00003.341523,00002.616448,00002.630391,00002.611233,00003.096578,00002.385558,00002.146240,-00001.683035,-00000.128625,-00000.546607,00000.001262,-00000.078003,-00000.211040
0000000001104,00002.370661,00001.666498,00001.779191,00003.340513,00002.616369,00002.628911,00002.611238,00003.096398,00002.385222,00002.144425,-00001.693579,-00000.129639,-00000.546573,00000.001206,-00000.077249,-00000.211697
0000000001105,00002.370290,00001.666311,00001.778574,00003.340214,00002.615934,00002.627803,00002.611131,00003.096501,00002.384912,00002.143087,-00001.704862,-00000.130541,-00000.546955,00000.001075,-00000.077288,-00000.212672
0000000001106,00002.370053,00001.666114,00001.778013,00003.339717,00002.615503,00002.626906,00002.610773,00003.096710,00002.384626,00002.141542,-00001.715652,-00000.131404,-00000.547289,00000.001027,-00000.077372,-00000.213957
0000000001107,00002.369375,00001.665956,00001.777488,00003.338374,00002.615496,00002.625237,00002.610682,00003.096798,00002.384361,00002.140040,-00001.724895,-00000.132534,-00000.547977,00000.000552,-00000.077042,-00000.215151
0000000001108,00002.369173,00001.665425,00001.777010,00003.337588,00002.614767,00002.624111,00002.610376,00003.096977,00002.384118,00002.138724,-00001.732992,-00000.133632,-00000.548987,00000.000511,-00000.075662,-00000.216245
0000000001109,00002.368958,00001.665653,00001.776563,00003.337170,00002.614760,00002.622690,00002.610662,00003.097051,00002.383893,00002.137446,-00001.742675,-00000.134957,-00000.549935,00000.000833,-00000.072841,-00000.216897
0000000001110,00002.368786,00001.665564,00001.776156,00003.336501,00002.614139,00002.621006,00002.610765,00003.096840,00002.383685,00002.135963,-00001.753921,-00000.136254,-00000.550432,00000.001161,-00000.070216,-00000.217466
0000000001111,00002.368240,00001.665032,00001.775776,00003.335782,00002.613408,00002.619070,00002.610645,00003.096904,00002.383494,00002.134149,-00001.765792,-00000.137019,-00000.550876,00000.001434,-00000.068177,-00000.218022
0000000001112,00002.368094,00001.664594,00001.775430,00003.334850,00002.612880,00002.616911,00002.610370,00003.097087,00002.382955,00002.132524,-00001.777543,-00000.138123,-00000.551300,00000.001714,-00000.066668,-00000.218868
0000000001113,00002.367629,00001.664141,00001.775105,00003.333150,00002.612620,00002.614175,00002.610268,00003.096779,00002.382429,00002.130617,-00001.788737,-00000.139137,-00000.552041,00000.001947,-00000.064932,-00000.219342
0000000001114,00002.367142,00001.663768,00001.774448,00003.331993,00002.612170,00002.611974,00002.610033,00003.096572,00002.381970,00002.128508,-00001.799466,-00000.140440,-00000.552764,00000.002185,-00000.062922,-00000.219700
0000000001115,00002.367109,00001.664108,00001.774172,00003.331272,00002.611949,00002.609645,00002.610309,00003.096672,00002.381885,00002.126884,-00001.810084,-00000.141666,-00000.553395,00000.002383,-00000.061082,-00000.220103
0000000001116,00002.366331,00001.663790,00001.773613,00003.329199,00002.611929,00002.607408,00002.610473,00003.096496,00002.381494,00002.125089,-00001.821394,-00000.142413,-00000.554010,00000.002585,-00000.059370,-00000.220407
0000000001117,00002.365941,00001.663717,00001.773015,00003.327496,00002.611378,00002.605426,00002.610345,00003.096218,00002.381059,00002.123344,-00001.834786,-00000.143457,-00000.554184,00000.002754,-00000.058166,-00000.220750
0000000001118,00002.365279,00001.663810,00001.772539,00003.326457,00002.611361,00002.603159,00002.610847,00003.096069,00002.380726,00002.121453,-00001.849494,-00000.144092,-00000.553983,00000.003289,-00000.057798,-00000.221010
0000000001119,00002.365309,00001.663385,00001.772392,00003.325370,00002.610892,00002.601471,00002.610738,00003.096195,00002.379993,00002.119968,-00001.863797,-00000.144981,-00000.554131,00000.003796,-00000.057498,-00000.221302
0000000001120,00002.365471,00001.663463,00001.771987,00003.324486,00002.610514,00002.599541,00002.610802,00003.096067,00002.379347,00002.118721,-00001.877407,-00000.146247,-00000.554685,00000.003889,-00000.056822,-00000.221160
0000000001121,00002.365497,00001.663464,00001.771863,00003.323198,00002.610478,00002.597742,00002.610710,00003.096175,00002.378723,00002.117456,-00001.889583,-00000.147729,-00000.555537,00000.003957,-00000.055842,-00000.221045
0000000001122,00002.365635,00001.663531,00001.771880,00003.321719,00002.610519,00002.596099,00002.611127,00003.096429,00002.377810,00002.116394,-00001.901894,-00000.149170,-00000.556009,00000.004036,-00000.054903,-00000.221287
0000000001123,00002.365657,00001.663532,00001.771774,00003.320260,00002.610125,00002.594567,00002.611048,00003.096884,00002.371474,00002.114955,-00001.914436,-00000.150432,-00000.556371,00000.004457,-00000.053705,-00000.221553
0000000001124,00002.365774,00001.663589,00001.771427,00003.319364,00002.609798,00002.593168,00002.611041,00003.097100,00002.365618,00002.113326,-00001.926731,-00000.152021,-00000.557135,00000.004887,-00000.052543,-00000.221396
0000000001125,00002.365430,00001.663589,00001.770974,00003.318847,00002.609463,00002.591501,00002.611337,00003.096761,00002.360587,00002.111738,-00001.939948,-00000.153458,-00000.557444,00000.005608,-00000.051524,-00000.221622
0000000001126,00002.365167,00001.663275,00001.771040,00003.317722,00002.609184,00002.589948,00002.611331,00003.096946,00002.355239,00002.110351,-00001.952953,-00000.154448,-00000.557732,00000.006337,-00000.051260,-00000.222214
0000000001127,00002.364874,00001.663276,00001.771018,00003.316194,00002.609261,00002.588529,00002.611582,00003.097020,00002.350593,00002.108999,-00001.965656,-00000.155309,-00000.557994,00000.006951,-00000.051844,-00000.223132
0000000001128,00002.365013,00001.663371,00001.771074,00003.315235,00002.609024,00002.587207,00002.611577,00003.097540,00002.346403,00002.107818,-00001.977454,-00000.156515,-00000.558239,00000.007209,-00000.052345,-00000.223999
0000000001129,00002.365126,00001.663371,00001.771055,00003.313935,00002.608727,00002.585999,00002.611428,00003.097603,00002.342448,00002.106304,-00001.988993,-00000.157610,-00000.558826,00000.007369,-00000.051753,-00000.224418
0000000001130,00002.364882,00001.663090,00001.771103,00003.313119,00002.608525,00002.584873,00002.611424,00003.097683,00002.338518,00002.104936,-00001.998673,-00000.158999,-00000.559760,00000.007951,-00000.050366,-00000.224793
0000000001131,00002.364616,00001.663090,00001.770724,00003.312011,00002.608272,00002.583482,00002.611660,00003.097374,00002.335514,00002.103647,-00002.006683,-00000.160294,-00000.560622,00000.008450,-00000.048774,-00000.225149
0000000001132,00002.364408,00001.663213,00001.770402,00003.310954,00002.608100,00002.582523,00002.612019,00003.097079,00002.332531,00002.102483,-00002.014198,-00000.161477,-00000.561780,00000.008945,-00000.046867,-00000.225469
0000000001133,00002.364544,00001.663576,00001.770442,00003.310374,00002.607885,00002.582064,00002.612220,00003.097179,00002.329611,00002.101386,-00002.021379,-00000.162580,-00000.562877,00000.009370,-00000.045149,-00000.225409
0000000001134,00002.364729,00001.663681,00001.770531,00003.309837,00002.607739,00002.581249,00002.612526,00003.097653,00002.326709,00002.100394,-00002.028866,-00000.163587,-00000.563500,00000.009792,-00000.043163,-00000.224956
0000000001135,00002.364845,00001.663627,00001.770565,00003.308980,00002.607918,00002.580495,00002.612697,00003.097738,00002.324223,00002.099823,-00002.035342,-00000.164525,-00000.564070,00000.010153,-00000.040975,-00000.224180
0000000001136,00002.365003,00001.663716,00001.770278,00003.308160,00002.607794,00002.579801,00002.612957,00003.097416,00002.321753,00002.098617,-00002.040989,-00000.165382,-00000.564964,00000.010513,-00000.039284,-00000.223793
0000000001137,00002.365102,00001.664033,00001.770307,00003.307431,00002.607946,00002.579159,00002.613466,00003.097126,00002.320000,00002.097768,-00002.045051,-00000.166544,-00000.565812,00000.010820,-00000.037784,-00000.224221
0000000001138,00002.365599,00001.664472,00001.770063,00003.307096,00002.608203,00002.578568,00002.614050,00003.097215,00002.318259,00002.097466,-00002.047682,-00000.167637,-00000.566935,00000.011126,-00000.035620,-00000.224618
0000000001139,00002.366832,00001.664753,00001.769879,00003.305464,00002.608552,00002.576793,00002.614255,00003.096680,00002.314560,00002.096486,-00002.051929,-00000.169556,-00000.568977,00000.012011,-00000.031049,-00000.225320
0000000001140,00002.367521,00001.664620,00001.769954,00003.304519,00002.608300,00002.576382,00002.614315,00003.096833,00002.312980,00002.096234,-00002.055088,-00000.170398,-00000.569901,00000.012234,-00000.029761,-00000.225267
0000000001141,00002.368245,00001.664992,00001.770086,00003.303712,00002.608849,00002.576008,00002.614792,00003.096951,00002.311410,00002.096378,-00002.056995,-00000.171189,-00000.570715,00000.012402,-00000.028971,-00000.226280
0000000001142,00002.368831,00001.665241,00001.770150,00003.302907,00002.609360,00002.575295,00002.614843,00003.097081,00002.310065,00002.096163,-00002.057145,-00000.171906,-00000.571864,00000.012229,-00000.028237,-00000.227323
0000000001143,00002.369447,00001.665558,00001.770262,00003.302220,00002.609827,00002.574976,00002.615250,00003.097182,00002.309092,00002.095923,-00002.056591,-00000.172943,-00000.573283,00000.012009,-00000.027203,-00000.228186
0000000001144,00002.370309,00001.665770,00001.770316,00003.301535,00002.610262,00002.574733,00002.615293,00003.097292,00002.307947,00002.096103,-00002.055631,-00000.174279,-00000.574624,00000.012224,-00000.025853,-00000.228711
0000000001145,00002.371196,00001.666040,00001.770774,00003.300951,00002.610660,00002.574824,00002.615276,00003.097740,00002.306755,00002.096261,-00002.056611,-00000.175162,-00000.575469,00000.012400,-00000.024609,-00000.229083
0000000001146,00002.371930,00001.666221,00001.770821,00003.301093,00002.610667,00002.574979,00002.615676,00003.097834,00002.306143,00002.096051,-00002.058333,-00000.175936,-00000.576248,00000.012221,-00000.024185,-00000.229893
0000000001147,00002.372322,00001.666450,00001.770848,00003.300958,00002.610643,00002.575057,00002.616024,00003.097854,00002.305491,00002.095823,-00002.059892,-00000.176324,-00000.576604,00000.012007,-00000.024577,-00000.230935
0000000001148,00002.372947,00001.666604,00001.771250,00003.300354,00002.611012,00002.574826,00002.616002,00003.098296,00002.304608,00002.096008,-00002.061721,-00000.176984,-00000.577267,00000.011855,-00000.024942,-00000.232350
0000000001149,00002.373644,00001.666799,00001.771636,00003.299876,00002.611355,00002.574530,00002.616298,00003.098675,00002.303690,00002.096176,-00002.062686,-00000.177677,-00000.577933,00000.011673,-00000.025276,-00000.233600
0000000001150,00002.374176,00001.666930,00001.771978,00003.299725,00002.611669,00002.574696,00002.616642,00003.099415,00002.302938,00002.096333,-00002.062791,-00000.178238,-00000.578498,00000.011543,-00000.024498,-00000.234442
0000000001151,00002.374406,00001.667459,00001.771944,00003.298955,00002.611960,00002.574444,00002.616894,00003.099375,00002.302157,00002.096114,-00002.063976,-00000.178466,-00000.578702,00000.011751,-00000.023332,-00000.234780
0000000001152,00002.374496,00001.667571,00001.771873,00003.298101,00002.611865,00002.573860,00002.617187,00003.099279,00002.301517,00002.095522,-00002.066605,-00000.178581,-00000.578820,00000.012003,-00000.022669,-00000.234771
0000000001153,00002.374692,00001.667659,00001.771481,00003.297808,00002.611750,00002.574008,00002.617402,00003.099245,00002.301214,00002.095336,-00002.070153,-00000.178775,-00000.578994,00000.011818,-00000.022765,-00000.234696
0000000001154,00002.374769,00001.667754,00001.771420,00003.297081,00002.612032,00002.573511,00002.617651,00003.099163,00002.300669,00002.095194,-00002.074931,-00000.178873,-00000.579094,00000.011670,-00000.022926,-00000.234689
0000000001155,00002.375299,00001.667465,00001.771087,00003.296832,00002.611934,00002.573274,00002.617471,00003.099497,00002.300049,00002.095036,-00002.079765,-00000.178675,-00000.578879,00000.011512,-00000.022645,-00000.234988
0000000001156,00002.375364,00001.667183,00001.770672,00003.296575,00002.611811,00002.573214,00002.617683,00003.099428,00002.299948,00002.094553,-00002.083832,-00000.178395,-00000.578602,00000.011386,-00000.022057,-00000.235344
0000000001157,00002.375815,00001.667301,00001.770388,00003.296364,00002.611728,00002.573012,00002.617530,00003.099349,00002.299783,00002.094417,-00002.086859,-00000.178227,-00000.578419,00000.011614,-00000.021091,-00000.235236
0000000001158,00002.375871,00001.667424,00001.770035,00003.295782,00002.611623,00002.572960,00002.617710,00003.099290,00002.299334,00002.094006,-00002.089596,-00000.177989,-00000.578183,00000.011869,-00000.019865,-00000.235177
0000000001159,00002.376254,00001.667161,00001.770156,00003.295239,00002.611553,00002.572789,00002.617580,00003.099586,00002.298831,00002.093891,-00002.092899,-00000.177483,-00000.578027,00000.012064,-00000.018318,-00000.234359
0000000001160,00002.376302,00001.666903,00001.770219,00003.294382,00002.611463,00002.572382,00002.617734,00003.099173,00002.298448,00002.093541,-00002.096680,-00000.176918,-00000.577826,00000.012281,-00000.016911,-00000.233220
0000000001161,00002.376266,00001.667042,00001.770322,00003.293919,00002.611766,00002.571873,00002.617986,00003.099062,00002.298020,00002.093443,-00002.100943,-00000.176487,-00000.577331,00000.012446,-00000.015594,-00000.232161
0000000001162,00002.376669,00001.666822,00001.770375,00003.292826,00002.612053,00002.571527,00002.618116,00003.099073,00002.297694,00002.093508,-00002.104887,-00000.175643,-00000.576797,00000.012994,-00000.014759,-00000.230829
0000000001163,00002.377001,00001.666940,00001.770463,00003.291707,00002.611948,00002.571820,00002.618331,00003.099341,00002.297692,00002.093424,-00002.107427,-00000.174913,-00000.576375,00000.013498,-00000.014001,-00000.229927
0000000001164,00002.376981,00001.667116,00001.770508,00003.290414,00002.611829,00002.571525,00002.618442,00003.098988,00002.297415,00002.093117,-00002.109697,-00000.174557,-00000.576284,00000.013964,-00000.012928,-00000.229156
0000000001165,00002.376885,00001.667003,00001.769895,00003.287998,00002.611276,00002.571160,00002.618357,00003.098552,00002.296815,00002.092421,-00002.114517,-00000.173996,-00000.576209,00000.014790,-00000.010642,-00000.227369
0000000001166,00002.377542,00001.666726,00001.770013,00003.287549,00002.611200,00002.571117,00002.618149,00003.098855,00002.296868,00002.092415,-00002.117810,-00000.173414,-00000.575850,00000.015155,-00000.009784,-00000.225990
0000000001167,00002.378087,00001.666309,00001.770200,00003.285922,00002.611465,00002.570813,00002.618107,00003.099165,00002.296349,00002.092549,-00002.123237,-00000.172297,-00000.575115,00000.015441,-00000.008329,-00000.222860
0000000001168,00002.378747,00001.666517,00001.770274,00003.285479,00002.611438,00002.571257,00002.618276,00003.099519,00002.296178,00002.092668,-00002.125056,-00000.171769,-00000.575112,00000.015366,-00000.008075,-00000.222229
0000000001169,00002.379476,00001.666131,00001.770422,00003.283796,00002.611669,00002.570932,00002.618215,00003.100093,00002.295762,00002.092765,-00002.128680,-00000.170896,-00000.574849,00000.015984,-00000.007237,-00000.221835
0000000001170,00002.379619,00001.665960,00001.770494,00003.282631,00002.611522,00002.570643,00002.617987,00003.099963,00002.295531,00002.092761,-00002.129360,-00000.170537,-00000.574990,00000.016255,-00000.006654,-00000.221648
0000000001171,00002.379855,00001.666019,00001.770609,00003.280284,00002.611740,00002.570409,00002.617969,00003.099745,00002.295211,00002.092481,-00002.132345,-00000.169485,-00000.575471,00000.016377,-00000.006027,-00000.220977
0000000001172,00002.380316,00001.665885,00001.770655,00003.279438,00002.611723,00002.570420,00002.617810,00003.099655,00002.295106,00002.092245,-00002.134192,-00000.169159,-00000.575415,00000.016285,-00000.005971,-00000.220488
0000000001173,00002.380812,00001.665955,00001.770746,00003.277566,00002.611911,00002.569857,00002.617819,00003.099846,00002.294486,00002.092042,-00002.136096,-00000.168675,-00000.576196,00000.016040,-00000.005808,-00000.220716
0000000001174,00002.380871,00001.666015,00001.770461,00003.276697,00002.611708,00002.570103,00002.618189,00003.099646,00002.294321,00002.091506,-00002.137716,-00000.168626,-00000.577223,00000.015832,-00000.004219,-00000.221272
0000000001175,00002.381263,00001.666249,00001.770553,00003.275807,00002.611909,00002.569897,00002.618339,00003.099894,00002.294246,00002.091558,-00002.139578,-00000.168476,-00000.577923,00000.015711,-00000.003881,-00000.221522
0000000001176,00002.381647,00001.666066,00001.770581,00003.275232,00002.611899,00002.569950,00002.618504,00003.100201,00002.294181,00002.091776,-00002.141635,-00000.168221,-00000.578460,00000.015654,-00000.003955,-00000.221746
0000000001177,00002.381582,00001.666110,00001.770684,00003.268180,00002.612423,00002.569456,00002.619498,00003.100311,00002.294062,00002.092005,-00002.147148,-00000.167877,-00000.578788,00000.015503,-00000.003729,-00000.223238
0000000001178,00002.381890,00001.666147,00001.770771,00003.261088,00002.612144,00002.569762,00002.620706,00003.100768,00002.294323,00002.091837,-00002.153655,-00000.167583,-00000.579430,00000.015012,-00000.003900,-00000.225233
0000000001179,00002.381506,00001.665974,00001.770465,00003.257665,00002.611959,00002.569581,00002.621008,00003.100921,00002.294585,00002.091560,-00002.156156,-00000.167491,-00000.579961,00000.014575,-00000.004001,-00000.225959
0000000001180,00002.381462,00001.666032,00001.770584,00003.251048,00002.612475,00002.569142,00002.621992,00003.100561,00002.294406,00002.091096,-00002.160599,-00000.167255,-00000.580791,00000.013859,-00000.003769,-00000.226824
0000000001181,00002.381394,00001.666205,00001.770599,00003.248260,00002.612739,00002.568900,00002.622665,00003.100815,00002.294735,00002.090902,-00002.163293,-00000.167121,-00000.581113,00000.013566,-00000.003444,-00000.226981
0000000001182,00002.381424,00001.666080,00001.770686,00003.245416,00002.612914,00002.568769,00002.622830,00003.100980,00002.294616,00002.091064,-00002.166920,-00000.167054,-00000.581135,00000.013612,-00000.002846,-00000.227561
0000000001183,00002.381392,00001.666485,00001.770410,00003.240984,00002.612925,00002.568451,00002.623906,00003.100611,00002.294432,00002.090311,-00002.178105,-00000.165795,-00000.580702,00000.013765,-00000.002422,-00000.230365
0000000001184,00002.381365,00001.666466,00001.770538,00003.237573,00002.613297,00002.568181,00002.624822,00003.100660,00002.295001,00002.090032,-00002.191619,-00000.163271,-00000.579245,00000.013894,-00000.004602,-00000.234565
0000000001185,00002.381686,00001.665848,00001.770547,00003.235799,00002.613097,00002.568031,00002.624874,00003.100917,00002.294887,00002.089912,-00002.197947,-00000.161945,-00000.578563,00000.014340,-00000.005374,-00000.236423
0000000001186,00002.381978,00001.665198,00001.770654,00003.233160,00002.612356,00002.568186,00002.624921,00003.100921,00002.294663,00002.089330,-00002.215403,-00000.159269,-00000.576336,00000.015110,-00000.006026,-00000.239723
0000000001187,00002.381940,00001.665147,00001.770739,00003.231473,00002.612540,00002.567701,00002.625285,00003.101046,00002.294554,00002.089231,-00002.224039,-00000.158314,-00000.575606,00000.015443,-00000.006693,-00000.241186
0000000001188,00002.382194,00001.664239,00001.770818,00003.228751,00002.612607,00002.566816,00002.625270,00003.101031,00002.294742,00002.088750,-00002.237615,-00000.156903,-00000.574544,00000.016049,-00000.006423,-00000.244141
0000000001189,00002.382076,00001.663812,00001.770769,00003.227294,00002.612476,00002.566052,00002.625303,00003.100509,00002.294672,00002.088359,-00002.241192,-00000.156811,-00000.574949,00000.016323,-00000.004823,-00000.245233
0000000001190,00002.381947,00001.663102,00001.770118,00003.224468,00002.612189,00002.564687,00002.624923,00003.100211,00002.294480,00002.087645,-00002.248590,-00000.157074,-00000.576161,00000.016798,-00000.001204,-00000.246134
0000000001191,00002.381923,00001.662808,00001.769908,00003.222285,00002.612040,00002.564442,00002.624522,00003.100025,00002.294367,00002.087321,-00002.251677,-00000.157057,-00000.576955,00000.017004,00000.000409,-00000.246365
0000000001192,00002.382543,00001.661885,00001.770110,00003.217664,00002.612181,00002.563316,00002.623895,00003.099799,00002.293857,00002.087124,-00002.255701,-00000.156922,-00000.577869,00000.017378,00000.003613,-00000.246736
0000000001193,00002.383070,00001.662187,00001.770282,00003.213368,00002.611938,00002.561995,00002.623361,00003.100331,00002.293060,00002.086957,-00002.253685,-00000.157532,-00000.579736,00000.017696,00000.008155,-00000.246325
0000000001194,00002.383271,00001.661955,00001.770296,00003.211729,00002.611823,00002.561694,00002.623155,00003.100590,00002.293123,00002.087015,-00002.250784,-00000.157753,-00000.580527,00000.017840,00000.010563,-00000.245363
0000000001195,00002.383157,00001.661719,00001.770429,00003.209711,00002.611731,00002.560871,00002.622907,00003.100785,00002.292745,00002.087177,-00002.248341,-00000.158051,-00000.581325,00000.017967,00000.012747,-00000.244162
0000000001196,00002.382867,00001.661684,00001.769828,00003.206597,00002.611193,00002.560639,00002.622883,00003.100082,00002.292476,00002.087002,-00002.244154,-00000.158493,-00000.582678,00000.018198,00000.016294,-00000.242320
0000000001197,00002.382983,00001.661653,00001.770043,00003.203947,00002.611460,00002.560805,00002.622863,00003.100573,00002.291885,00002.087216,-00002.241679,-00000.157781,-00000.583467,00000.018031,00000.018587,-00000.241478
0000000001198,00002.382790,00001.661873,00001.770097,00003.202618,00002.611797,00002.560928,00002.623461,00003.100461,00002.292024,00002.086934,-00002.240777,-00000.157609,-00000.583592,00000.018174,00000.019818,-00000.240885
0000000001199,00002.382918,00001.661451,00001.770634,00003.200197,00002.611974,00002.561050,00002.623718,00003.100896,00002.291862,00002.087158,-00002.239167,-00000.157391,-00000.584608,00000.018374,00000.021587,-00000.239530
0000000001200,00002.383167,00001.661605,00001.770689,00003.199044,00002.612243,00002.561012,00002.624174,00003.101037,00002.291570,00002.087243,-00002.238811,-00000.157331,-00000.585073,00000.018440,00000.022564,-00000.238391
0000000001201,00002.383239,00001.661949,00001.770412,00003.197879,00002.611991,00002.561485,00002.625050,00003.100660,00002.291477,00002.086695,-00002.239307,-00000.157154,-00000.585506,00000.018601,00000.023563,-00000.237045
0000000001202,00002.383482,00001.661768,00001.770500,00003.197414,00002.611891,00002.561969,00002.625465,00003.100908,00002.291662,00002.086476,-00002.240820,-00000.157048,-00000.585483,00000.018689,00000.024013,-00000.236778
0000000001203,00002.383144,00001.661725,00001.770614,00003.195404,00002.611691,00002.561574,00002.626149,00003.100550,00002.291554,00002.086042,-00002.244282,-00000.156551,-00000.585129,00000.018812,00000.025158,-00000.236398
0000000001204,00002.382989,00001.661874,00001.770648,00003.194284,00002.611957,00002.561142,00002.626794,00003.100737,00002.291691,00002.086195,-00002.245098,-00000.156151,-00000.585153,00000.018853,00000.025445,-00000.236629
0000000001205,00002.383087,00001.661815,00001.771103,00003.192376,00002.612473,00002.560507,00002.628006,00003.100767,00002.291579,00002.085803,-00002.248649,-00000.156150,-00000.585211,00000.018952,00000.026014,-00000.236271
0000000001206,00002.382921,00001.661966,00001.771157,00003.191563,00002.612357,00002.560280,00002.628571,00003.100658,00002.291748,00002.086030,-00002.249846,-00000.156130,-00000.585606,00000.019007,00000.026292,-00000.236106
0000000001207,00002.382666,00001.661531,00001.771174,00003.190060,00002.612088,00002.560136,00002.629519,00003.100337,00002.291990,00002.085663,-00002.251240,-00000.156495,-00000.586685,00000.019083,00000.027825,-00000.236551
0000000001208,00002.382813,00001.661886,00001.771188,00003.189506,00002.611859,00002.560377,00002.629963,00003.100064,00002.292197,00002.085350,-00002.251338,-00000.157169,-00000.587967,00000.019147,00000.029129,-00000.237292
0000000001209,00002.382731,00001.662050,00001.771167,00003.188455,00002.612098,00002.560050,00002.629939,00003.099899,00002.291906,00002.085206,-00002.251936,-00000.157491,-00000.588551,00000.018806,00000.029125,-00000.237816
0000000001210,00002.382868,00001.661965,00001.771545,00003.187051,00002.611868,00002.559577,00002.630320,00003.099691,00002.291762,00002.085324,-00002.253382,-00000.157654,-00000.589555,00000.018912,00000.030236,-00000.239458
0000000001211,00002.383043,00001.661774,00001.771882,00003.186308,00002.611807,00002.559412,00002.630354,00003.099942,00002.291542,00002.085166,-00002.253092,-00000.157867,-00000.589986,00000.018578,00000.030930,-00000.240167
0000000001212,00002.383496,00001.661368,00001.772516,00003.185949,00002.611620,00002.559397,00002.630674,00003.100454,00002.291452,00002.085289,-00002.254729,-00000.157974,-00000.591139,00000.018718,00000.031410,-00000.242910
0000000001213,00002.383755,00001.661522,00001.772812,00003.185510,00002.611867,00002.559142,00002.631285,00003.100707,00002.291535,00002.085510,-00002.255460,-00000.157856,-00000.591446,00000.018407,00000.031208,-00000.243751
0000000001214,00002.383739,00001.661516,00001.773671,00003.184906,00002.612034,00002.559167,00002.631829,00003.100742,00002.291447,00002.085582,-00002.253843,-00000.158327,-00000.593108,00000.017484,00000.031646,-00000.245236
0000000001215,00002.383901,00001.661707,00001.773879,00003.184711,00002.612359,00002.559428,00002.632522,00003.100588,00002.291620,00002.085485,-00002.251666,-00000.158868,-00000.594408,00000.016869,00000.032637,-00000.245890
0000000001216,00002.384589,00001.661673,00001.774579,00003.183864,00002.612090,00002.560137,00002.632519,00003.100640,00002.291518,00002.085198,-00002.246260,-00000.159914,-00000.596355,00000.015812,00000.035039,-00000.247057
0000000001217,00002.385175,00001.662007,00001.774813,00003.183505,00002.611860,00002.560377,00002.632517,00003.100685,00002.291432,00002.084592,-00002.242745,-00000.160805,-00000.598013,00000.014549,00000.035996,-00000.248050
0000000001218,00002.385265,00001.662174,00001.774929,00003.183683,00002.612090,00002.560829,00002.632660,00003.100918,00002.291561,00002.084498,-00002.241359,-00000.161230,-00000.598938,00000.013799,00000.036555,-00000.248129
0000000001219,00002.385025,00001.662433,00001.775110,00003.182626,00002.612587,00002.560241,00002.633363,00003.100921,00002.291831,00002.084359,-00002.238573,-00000.161562,-00000.599849,00000.012473,00000.037287,-00000.248600
0000000001220,00002.385064,00001.662897,00001.775180,00003.182940,00002.612842,00002.560393,00002.633911,00003.101064,00002.292385,00002.084670,-00002.237878,-00000.161483,-00000.600262,00000.012250,00000.037451,-00000.249360
0000000001221,00002.385942,00001.662686,00001.775687,00003.182719,00002.612864,00002.560595,00002.634065,00003.101408,00002.292170,00002.084868,-00002.237787,-00000.161415,-00000.601338,00000.011154,00000.037324,-00000.250736
0000000001222,00002.385964,00001.662869,00001.775756,00003.182168,00002.612882,00002.560404,00002.634559,00003.101702,00002.292349,00002.085036,-00002.237346,-00000.161720,-00000.601892,00000.010221,00000.037941,-00000.252271
0000000001223,00002.386005,00001.663003,00001.775817,00003.181714,00002.612740,00002.560457,00002.634595,00003.101863,00002.292378,00002.085350,-00002.237183,-00000.162082,-00000.602108,00000.009827,00000.038374,-00000.253524
0000000001224,00002.386017,00001.662413,00001.775866,00003.181312,00002.612414,00002.560287,00002.634647,00003.102451,00002.292164,00002.085809,-00002.237921,-00000.161924,-00000.602910,00000.009091,00000.038109,-00000.256458
0000000001225,00002.385665,00001.663000,00001.775545,00003.180970,00002.612499,00002.559779,00002.635054,00003.101864,00002.292345,00002.085837,-00002.237823,-00000.161791,-00000.603230,00000.008465,00000.038247,-00000.258593
0000000001226,00002.385649,00001.663009,00001.775543,00003.180288,00002.612660,00002.559215,00002.635379,00003.101573,00002.292481,00002.085614,-00002.237940,-00000.161716,-00000.603415,00000.008175,00000.038678,-00000.258957
0000000001227,00002.385352,00001.662781,00001.775271,00003.179736,00002.612346,00002.558867,00002.635677,00003.101479,00002.292251,00002.085308,-00002.237477,-00000.161613,-00000.603660,00000.007685,00000.038731,-00000.259995
0000000001228,00002.385056,00001.663307,00001.775349,00003.179451,00002.612634,00002.558308,00002.636059,00003.101610,00002.292320,00002.085573,-00002.237723,-00000.161217,-00000.603372,00000.007478,00000.038773,-00000.260305
0000000001229,00002.384847,00001.663035,00001.775468,00003.178660,00002.612686,00002.557369,00002.636256,00003.101510,00002.292478,00002.085273,-00002.236929,-00000.160825,-00000.603623,00000.007092,00000.039175,-00000.261142
0000000001230,00002.384669,00001.663167,00001.775569,00003.177987,00002.612731,00002.556569,00002.636424,00003.101426,00002.292612,00002.085018,-00002.238067,-00000.160492,-00000.603837,00000.006400,00000.039155,-00000.261492
0000000001231,00002.384337,00001.663217,00001.775244,00003.177490,00002.612592,00002.556134,00002.636694,00003.101173,00002.292683,00002.084901,-00002.239672,-00000.160499,-00000.603934,00000.006247,00000.038794,-00000.261598
0000000001232,00002.384155,00001.662916,00001.774929,00003.176689,00002.612407,00002.555526,00002.636930,00003.100991,00002.292363,00002.084801,-00002.242301,-00000.159846,-00000.603656,00000.005811,00000.037686,-00000.261790
0000000001233,00002.384443,00001.662702,00001.775111,00003.176671,00002.612130,00002.555001,00002.636997,00003.100983,00002.292514,00002.084617,-00002.244455,-00000.158933,-00000.604228,00000.004947,00000.035710,-00000.262043
0000000001234,00002.384687,00001.662883,00001.775265,00003.177020,00002.611895,00002.554554,00002.637055,00003.100977,00002.292280,00002.084459,-00002.245562,-00000.158518,-00000.605077,00000.004211,00000.036204,-00000.262259
0000000001235,00002.384533,00001.663037,00001.775034,00003.176590,00002.611332,00002.553810,00002.636741,00003.100246,00002.292443,00002.084325,-00002.247593,-00000.158165,-00000.605801,00000.003585,00000.036626,-00000.262443
0000000001236,00002.384583,00001.662740,00001.775087,00003.176144,00002.611675,00002.553582,00002.636614,00003.100839,00002.292118,00002.084264,-00002.248180,-00000.157984,-00000.606115,00000.003281,00000.036816,-00000.262136
0000000001237,00002.384402,00001.662806,00001.774837,00003.176225,00002.611578,00002.553177,00002.636837,00003.100712,00002.292219,00002.084211,-00002.247509,-00000.158228,-00000.606779,00000.002689,00000.036984,-00000.261874
0000000001238,00002.384653,00001.662971,00001.774669,00003.175914,00002.611788,00002.552276,00002.636556,00003.100383,00002.292029,00002.084114,-00002.247074,-00000.158281,-00000.607975,00000.002289,00000.038378,-00000.262115
0000000001239,00002.384866,00001.662749,00001.774889,00003.175287,00002.612329,00002.551871,00002.637042,00003.100829,00002.291867,00002.084757,-00002.246340,-00000.158326,-00000.608630,00000.001586,00000.038838,-00000.261594
0000000001240,00002.384897,00001.662829,00001.774922,00003.175737,00002.612178,00002.551830,00002.637272,00003.100932,00002.291975,00002.084619,-00002.245868,-00000.158531,-00000.609141,00000.001036,00000.038810,-00000.260996
0000000001241,00002.384712,00001.662991,00001.774741,00003.175498,00002.611936,00002.551491,00002.637652,00003.100570,00002.292184,00002.084099,-00002.243863,-00000.159627,-00000.610348,00000.000519,00000.039932,-00000.259554
0000000001242,00002.384532,00001.663072,00001.774927,00003.174861,00002.612201,00002.551233,00002.638171,00003.100497,00002.292283,00002.084427,-00002.242391,-00000.160103,-00000.611060,00000.000169,00000.040290,-00000.259485
0000000001243,00002.385126,00001.663560,00001.775108,00003.174390,00002.612681,00002.550983,00002.638780,00003.101288,00002.292446,00002.085024,-00002.239452,-00000.160240,-00000.611619,-00000.000219,00000.040466,-00000.258993
0000000001244,00002.385145,00001.663556,00001.775129,00003.174505,00002.612897,00002.551375,00002.639230,00003.101398,00002.292513,00002.084931,-00002.237237,-00000.160321,-00000.612251,-00000.000242,00000.040720,-00000.258207
0000000001245,00002.385648,00001.663610,00001.775643,00003.174087,00002.613273,00002.551829,00002.639319,00003.101693,00002.292279,00002.085452,-00002.231073,-00000.160788,-00000.614084,-00000.000568,00000.041921,-00000.256816
0000000001246,00002.386439,00001.664018,00001.775718,00003.174457,00002.613231,00002.552579,00002.640120,00003.101944,00002.292442,00002.085171,-00002.225101,-00000.161186,-00000.615282,-00000.001209,00000.042580,-00000.255633
0000000001247,00002.386792,00001.664370,00001.775770,00003.174246,00002.613733,00002.552931,00002.640840,00003.102090,00002.292494,00002.085397,-00002.223206,-00000.161158,-00000.615595,-00000.001478,00000.042668,-00000.255110
0000000001248,00002.386750,00001.664729,00001.775782,00003.174046,00002.613920,00002.552855,00002.641164,00003.101794,00002.292944,00002.085657,-00002.221830,-00000.161162,-00000.615576,-00000.001755,00000.042779,-00000.254625
0000000001249,00002.387740,00001.664972,00001.776200,00003.173696,00002.614144,00002.553815,00002.641328,00003.102393,00002.293009,00002.086070,-00002.217958,-00000.161504,-00000.616189,-00000.002220,00000.042585,-00000.253767
0000000001250,00002.387942,00001.665226,00001.776237,00003.173906,00002.614200,00002.554070,00002.641958,00003.102136,00002.293047,00002.086234,-00002.215496,-00000.161847,-00000.616416,-00000.002415,00000.043066,-00000.253751
0000000001251,00002.388392,00001.665757,00001.776224,00003.173577,00002.614019,00002.554850,00002.642729,00003.101958,00002.293096,00002.086199,-00002.210026,-00000.162088,-00000.616905,-00000.002781,00000.042829,-00000.253749
0000000001252,00002.389138,00001.665484,00001.776938,00003.172934,00002.614954,00002.555513,00002.643023,00003.102170,00002.293138,00002.086532,-00002.207183,-00000.161929,-00000.616958,-00000.002368,00000.042991,-00000.253021
0000000001253,00002.389286,00001.665766,00001.776852,00003.172829,00002.615045,00002.555558,00002.643193,00003.101783,00002.293150,00002.086306,-00002.206661,-00000.162255,-00000.617171,-00000.002204,00000.043412,-00000.252721
0000000001254,00002.389773,00001.665977,00001.777183,00003.172387,00002.615387,00002.556078,00002.643273,00003.102350,00002.293174,00002.086453,-00002.205126,-00000.162520,-00000.617728,-00000.002378,00000.043491,-00000.252765
0000000001255,00002.390314,00001.665671,00001.777755,00003.171921,00002.616119,00002.556559,00002.643486,00003.103229,00002.293204,00002.086748,-00002.201561,-00000.163386,-00000.618384,-00000.002387,00000.045005,-00000.252909
0000000001256,00002.391137,00001.666136,00001.778242,00003.171887,00002.616742,00002.557331,00002.643667,00003.103977,00002.293230,00002.086999,-00002.199614,-00000.163761,-00000.618580,-00000.002032,00000.046657,-00000.251581
0000000001257,00002.391537,00001.665993,00001.778451,00003.171506,00002.617060,00002.557305,00002.643772,00003.104264,00002.293238,00002.087485,-00002.199274,-00000.164279,-00000.618666,-00000.002249,00000.047172,-00000.251040
0000000001258,00002.391090,00001.666048,00001.778109,00003.171171,00002.617180,00002.556516,00002.644274,00003.104132,00002.293259,00002.086902,-00002.199844,-00000.165246,-00000.618820,-00000.001914,00000.048139,-00000.250353
0000000001259,00002.391091,00001.665835,00001.777974,00003.170854,00002.617360,00002.556171,00002.644624,00003.104121,00002.293271,00002.087033,-00002.198453,-00000.166057,-00000.619251,-00000.001782,00000.048589,-00000.250576
0000000001260,00002.391798,00001.665550,00001.778428,00003.170253,00002.617073,00002.555912,00002.644274,00003.104737,00002.292924,00002.087242,-00002.193340,-00000.168211,-00000.620769,-00000.002242,00000.050434,-00000.250683
0000000001261,00002.391365,00001.665825,00001.778241,00003.170334,00002.617007,00002.555217,00002.644701,00003.104234,00002.292929,00002.087325,-00002.190869,-00000.169511,-00000.621440,-00000.002422,00000.051423,-00000.250558
0000000001262,00002.390944,00001.665904,00001.778293,00003.169811,00002.616772,00002.554012,00002.644702,00003.103744,00002.292633,00002.087127,-00002.187610,-00000.170788,-00000.621544,-00000.002424,00000.052483,-00000.251031
0000000001263,00002.390952,00001.666081,00001.778164,00003.170341,00002.616983,00002.553853,00002.645064,00003.103746,00002.293049,00002.087262,-00002.186008,-00000.171552,-00000.621401,-00000.002660,00000.051836,-00000.251631
0000000001264,00002.391318,00001.665760,00001.778227,00003.170542,00002.616389,00002.553577,00002.645010,00003.104054,00002.293098,00002.086712,-00002.180570,-00000.172889,-00000.622237,-00000.002990,00000.052109,-00000.251944
0000000001265,00002.391259,00001.665666,00001.778011,00003.170275,00002.616348,00002.553456,00002.645011,00003.103953,00002.292784,00002.086817,-00002.178281,-00000.173111,-00000.622434,-00000.003100,00000.052610,-00000.251721
