0000000000715,00002.430518,00001.744784,00001.931719,00003.470860,00002.681409,00002.788898,00002.671172,00003.106101,00002.509004,00002.497651,-00000.363996,-00000.085681,-00000.546176,-00000.002648,-00000.021021,-00000.104961
0000000000716,00002.430488,00001.744952,00001.931716,00003.471149,00002.681605,00002.788691,00002.671387,00003.105855,00002.509236,00002.497726,-00000.363004,-00000.086296,-00000.546187,-00000.002826,-00000.021620,-00000.105120
0000000000717,00002.430442,00001.745095,00001.931804,00003.471723,00002.681756,00002.788498,00002.671590,00003.105696,00002.509592,00002.497750,-00000.362112,-00000.086727,-00000.546588,-00000.003342,-00000.022611,-00000.105679
0000000000718,00002.430416,00001.744874,00001.931802,00003.471969,00002.681923,00002.787959,00002.671773,00003.105849,00002.509789,00002.498177,-00000.360905,-00000.087250,-00000.547323,-00000.003857,-00000.023121,-00000.105815
0000000000719,00002.430377,00001.744270,00001.931877,00003.471732,00002.681688,00002.787070,00002.671583,00003.105715,00002.509367,00002.497835,-00000.359782,-00000.087617,-00000.547664,-00000.004297,-00000.023965,-00000.105927
0000000000720,00002.429992,00001.743357,00001.931875,00003.472304,00002.681468,00002.786974,00002.671738,00003.105482,00002.509172,00002.497835,-00000.358392,-00000.088062,-00000.547927,-00000.004735,-00000.024400,-00000.106043
0000000000721,00002.429959,00001.741755,00001.931939,00003.472828,00002.680905,00002.786579,00002.671577,00003.105730,00002.508812,00002.497907,-00000.357074,-00000.088011,-00000.548218,-00000.005109,-00000.025118,-00000.106139
0000000000722,00002.429269,00001.739889,00001.931574,00003.472953,00002.679992,00002.785772,00002.670984,00003.105170,00002.508284,00002.497182,-00000.355528,-00000.088027,-00000.548442,-00000.005482,-00000.025850,-00000.106237
0000000000723,00002.428515,00001.738162,00001.931266,00003.473762,00002.679150,00002.785436,00002.670483,00003.105018,00002.507977,00002.496880,-00000.354042,-00000.087985,-00000.548689,-00000.005800,-00000.025736,-00000.106319
0000000000724,00002.427927,00001.736211,00001.930956,00003.475318,00002.678735,00002.785474,00002.670341,00003.104904,00002.507528,00002.496625,-00000.352726,-00000.087998,-00000.548880,-00000.006118,-00000.025997,-00000.106403
0000000000725,00002.426922,00001.734015,00001.930693,00003.476370,00002.678019,00002.785551,00002.669915,00003.105137,00002.506904,00002.496368,-00000.351099,-00000.087962,-00000.548727,-00000.006389,-00000.026626,-00000.106472
0000000000726,00002.426059,00001.731266,00001.930429,00003.478058,00002.677303,00002.785947,00002.669431,00003.105403,00002.506158,00002.496151,-00000.349253,-00000.087611,-00000.548164,-00000.006659,-00000.027210,-00000.107269
0000000000727,00002.424841,00001.727946,00001.929843,00003.479679,00002.676693,00002.786012,00002.669432,00003.105239,00002.505990,00002.495932,-00000.347142,-00000.086854,-00000.547672,-00000.006890,-00000.028108,-00000.108417
0000000000728,00002.423381,00001.724154,00001.928892,00003.481116,00002.675721,00002.785623,00002.669020,00003.105102,00002.505718,00002.495385,-00000.344482,-00000.086192,-00000.546829,-00000.007120,-00000.029695,-00000.109095
0000000000729,00002.421618,00001.719876,00001.927668,00003.482496,00002.674838,00002.785679,00002.668294,00003.105325,00002.504849,00002.494836,-00000.341597,-00000.085185,-00000.546047,-00000.007317,-00000.030459,-00000.109709
0000000000730,00002.418561,00001.715560,00001.925770,00003.484445,00002.673648,00002.785348,00002.667581,00003.104846,00002.504255,00002.494370,-00000.338969,-00000.084259,-00000.545330,-00000.007875,-00000.030721,-00000.110287
0000000000731,00002.415610,00001.711192,00001.924728,00003.485982,00002.672172,00002.785032,00002.666600,00003.104673,00002.503153,00002.493540,-00000.336150,-00000.083402,-00000.544664,-00000.008405,-00000.031009,-00000.110809
0000000000732,00002.413007,00001.706430,00001.923112,00003.487279,00002.670433,00002.784751,00002.665630,00003.104628,00002.501921,00002.492781,-00000.333551,-00000.082614,-00000.544780,-00000.008518,-00000.031595,-00000.111301
0000000000733,00002.410495,00001.701986,00001.921499,00003.488950,00002.668813,00002.784482,00002.665158,00003.104481,00002.500983,00002.492074,-00000.330788,-00000.081521,-00000.544939,-00000.008607,-00000.032202,-00000.111746
0000000000734,00002.407916,00001.697569,00001.919398,00003.490054,00002.666970,00002.782791,00002.664333,00003.103717,00002.499571,00002.491065,-00000.327850,-00000.080487,-00000.545037,-00000.009066,-00000.033427,-00000.111802
0000000000735,00002.405414,00001.692698,00001.917662,00003.490751,00002.665953,00002.781837,00002.663568,00003.103592,00002.498410,00002.490463,-00000.324772,-00000.079557,-00000.545172,-00000.009504,-00000.034307,-00000.111818
0000000000736,00002.403219,00001.687849,00001.915874,00003.491691,00002.664747,00002.781486,00002.662865,00003.103667,00002.497208,00002.489604,-00000.321908,-00000.079040,-00000.545618,-00000.010257,-00000.033898,-00000.111503
0000000000737,00002.400727,00001.682976,00001.914033,00003.492647,00002.663519,00002.781036,00002.662214,00003.103198,00002.495857,00002.488729,-00000.319288,-00000.078611,-00000.546096,-00000.010993,-00000.032108,-00000.110791
0000000000738,00002.398133,00001.678486,00001.912511,00003.492721,00002.662492,00002.780374,00002.661979,00003.102536,00002.494834,00002.487997,-00000.317213,-00000.078533,-00000.546839,-00000.011997,-00000.029583,-00000.109434
0000000000739,00002.396373,00001.673975,00001.911307,00003.493536,00002.661447,00002.779992,00002.661425,00003.102136,00002.493683,00002.487252,-00000.315345,-00000.078531,-00000.547971,-00000.012986,-00000.026608,-00000.108102
0000000000740,00002.394891,00001.670152,00001.910011,00003.494324,00002.660573,00002.779791,00002.660861,00003.101936,00002.492813,00002.486630,-00000.313941,-00000.078465,-00000.548603,-00000.013841,-00000.023370,-00000.106584
0000000000741,00002.393393,00001.666675,00001.908623,00003.495380,00002.659683,00002.779102,00002.660389,00003.101959,00002.492196,00002.485996,-00000.312714,-00000.078463,-00000.549567,-00000.014683,-00000.020475,-00000.105088
0000000000742,00002.391768,00001.663784,00001.907519,00003.495326,00002.659302,00002.777843,00002.659910,00003.101425,00002.491092,00002.485828,-00000.311882,-00000.078769,-00000.550468,-00000.015411,-00000.017718,-00000.103433
0000000000743,00002.390493,00001.661186,00001.906701,00003.495862,00002.658907,00002.777620,00002.659508,00003.101082,00002.490567,00002.486014,-00000.311563,-00000.079130,-00000.551289,-00000.016128,-00000.015616,-00000.101434
0000000000744,00002.389835,00001.658725,00001.906124,00003.496542,00002.658582,00002.777999,00002.659100,00003.101353,00002.489990,00002.486235,-00000.311580,-00000.079391,-00000.552056,-00000.016747,-00000.013632,-00000.099662
0000000000745,00002.389113,00001.657239,00001.905427,00003.497361,00002.658609,00002.778535,00002.659121,00003.101423,00002.489543,00002.486755,-00000.312034,-00000.079699,-00000.553118,-00000.017720,-00000.011843,-00000.097960
0000000000746,00002.388553,00001.656232,00001.905299,00003.498302,00002.658695,00002.779220,00002.658773,00003.101654,00002.489414,00002.487306,-00000.312774,-00000.080283,-00000.554496,-00000.018610,-00000.010880,-00000.096452
0000000000747,00002.387938,00001.656056,00001.904706,00003.499000,00002.658718,00002.779676,00002.658791,00003.101352,00002.489759,00002.487387,-00000.313886,-00000.080908,-00000.555400,-00000.019076,-00000.010082,-00000.095003
0000000000748,00002.387461,00001.655924,00001.904597,00003.499076,00002.659517,00002.779897,00002.659221,00003.101186,00002.490013,00002.487855,-00000.315241,-00000.081406,-00000.556573,-00000.019834,-00000.008899,-00000.093356
0000000000749,00002.388388,00001.656137,00001.904817,00003.499306,00002.660262,00002.780648,00002.659236,00003.101653,00002.490669,00002.488649,-00000.316551,-00000.081937,-00000.557705,-00000.020593,-00000.008220,-00000.091759
0000000000750,00002.389796,00001.656750,00001.904725,00003.499734,00002.660943,00002.781561,00002.659602,00003.101512,00002.491611,00002.489048,-00000.318067,-00000.082724,-00000.559067,-00000.021238,-00000.007939,-00000.090358
0000000000751,00002.391312,00001.657294,00001.905275,00003.499568,00002.661577,00002.782201,00002.659978,00003.101547,00002.491807,00002.489724,-00000.319908,-00000.083539,-00000.560031,-00000.021884,-00000.008086,-00000.088999
0000000000752,00002.392873,00001.658904,00001.905559,00003.499568,00002.662519,00002.782978,00002.660289,00003.101427,00002.492245,00002.491152,-00000.321925,-00000.084209,-00000.561190,-00000.022433,-00000.008209,-00000.088168
0000000000753,00002.394526,00001.661182,00001.906028,00003.499790,00002.663059,00002.783885,00002.660609,00003.101457,00002.492775,00002.492454,-00000.324217,-00000.084903,-00000.562373,-00000.023346,-00000.008335,-00000.087374
0000000000754,00002.396218,00001.663641,00001.906632,00003.499791,00002.663861,00002.784548,00002.661237,00003.101717,00002.493511,00002.493669,-00000.326659,-00000.085473,-00000.563723,-00000.023814,-00000.008802,-00000.086667
0000000000755,00002.398351,00001.665942,00001.907394,00003.499616,00002.665046,00002.785320,00002.661509,00003.101743,00002.493962,00002.494777,-00000.329699,-00000.086427,-00000.564730,-00000.024591,-00000.009272,-00000.086354
0000000000756,00002.400517,00001.668399,00001.908634,00003.499980,00002.666091,00002.786609,00002.661681,00003.102327,00002.494589,00002.495812,-00000.332867,-00000.087275,-00000.565517,-00000.025352,-00000.009670,-00000.086114
0000000000757,00002.402695,00001.671083,00001.909645,00003.500194,00002.667100,00002.787629,00002.661913,00003.102712,00002.495698,00002.496755,-00000.335818,-00000.087724,-00000.566374,-00000.026013,-00000.010433,-00000.085848
0000000000758,00002.404539,00001.673900,00001.910338,00003.500141,00002.668353,00002.788364,00002.662059,00003.102484,00002.496595,00002.497636,-00000.338877,-00000.088084,-00000.567044,-00000.026661,-00000.011860,-00000.085644
0000000000759,00002.406393,00001.676911,00001.911199,00003.500323,00002.669575,00002.789232,00002.662256,00003.102449,00002.497902,00002.498801,-00000.341752,-00000.088466,-00000.567411,-00000.026862,-00000.013598,-00000.085417
0000000000760,00002.408688,00001.679672,00001.912515,00003.500640,00002.671004,00002.790220,00002.662743,00003.102980,00002.498665,00002.499914,-00000.344719,-00000.088772,-00000.567618,-00000.027050,-00000.015176,-00000.085244
0000000000761,00002.410267,00001.682961,00001.913247,00003.500070,00002.672407,00002.790597,00002.662911,00003.102950,00002.499052,00002.501269,-00000.347892,-00000.089460,-00000.568293,-00000.027221,-00000.016292,-00000.085051
0000000000762,00002.412221,00001.686399,00001.914004,00003.499977,00002.673623,00002.791438,00002.663326,00003.103040,00002.500065,00002.502579,-00000.351143,-00000.090083,-00000.568832,-00000.027381,-00000.017273,-00000.084540
0000000000763,00002.413928,00001.689925,00001.914628,00003.500218,00002.674818,00002.792121,00002.664195,00003.103014,00002.501483,00002.503733,-00000.354570,-00000.090669,-00000.569407,-00000.027889,-00000.017860,-00000.084376
0000000000764,00002.415591,00001.693215,00001.914910,00003.500502,00002.675853,00002.793200,00002.665273,00003.103090,00002.502345,00002.505211,-00000.357701,-00000.091199,-00000.570229,-00000.028389,-00000.018695,-00000.084304
0000000000765,00002.417770,00001.696579,00001.915804,00003.500343,00002.676870,00002.794145,00002.666013,00003.103431,00002.503189,00002.506918,-00000.360618,-00000.091698,-00000.570718,-00000.028458,-00000.019558,-00000.084527
0000000000766,00002.419911,00001.700468,00001.916769,00003.500585,00002.678115,00002.796152,00002.666931,00003.103859,00002.504286,00002.508539,-00000.363646,-00000.092150,-00000.571055,-00000.028521,-00000.020268,-00000.085191
0000000000767,00002.421766,00001.704420,00001.917168,00003.500087,00002.679343,00002.797681,00002.667561,00003.104149,00002.505004,00002.510356,-00000.366492,-00000.092574,-00000.571471,-00000.028580,-00000.020640,-00000.085744
0000000000768,00002.423589,00001.708456,00001.917627,00003.499930,00002.680402,00002.799027,00002.668342,00003.104513,00002.505938,00002.511736,-00000.369433,-00000.093322,-00000.572121,-00000.028633,-00000.020882,-00000.086310
0000000000769,00002.425531,00001.712184,00001.918328,00003.499869,00002.681448,00002.800329,00002.669241,00003.104761,00002.506913,00002.513645,-00000.372581,-00000.094046,-00000.572838,-00000.028684,-00000.021199,-00000.086780
0000000000770,00002.426720,00001.715983,00001.918719,00003.499010,00002.682350,00002.801112,00002.669907,00003.104708,00002.507707,00002.514820,-00000.375810,-00000.094682,-00000.573391,-00000.028729,-00000.021042,-00000.086899
0000000000771,00002.428010,00001.719518,00001.919317,00003.498233,00002.683603,00002.801858,00002.671034,00003.104918,00002.508537,00002.516082,-00000.378853,-00000.095299,-00000.574002,-00000.028772,-00000.020949,-00000.086936
0000000000772,00002.429748,00001.722753,00001.920012,00003.497501,00002.684734,00002.802887,00002.671601,00003.105599,00002.509214,00002.517445,-00000.381602,-00000.095840,-00000.574473,-00000.028811,-00000.020816,-00000.087400
0000000000773,00002.430846,00001.725763,00001.920158,00003.496839,00002.685800,00002.803522,00002.672561,00003.105778,00002.509920,00002.518883,-00000.384192,-00000.096365,-00000.574993,-00000.028484,-00000.020736,-00000.088158
0000000000774,00002.431963,00001.728516,00001.920387,00003.496217,00002.686400,00002.804398,00002.673043,00003.105632,00002.510496,00002.520043,-00000.386532,-00000.096826,-00000.575031,-00000.028154,-00000.020623,-00000.088915
0000000000775,00002.433261,00001.731078,00001.920511,00003.496016,00002.686945,00002.805301,00002.673498,00003.105784,00002.511097,00002.521267,-00000.388738,-00000.097273,-00000.575110,-00000.027514,-00000.020192,-00000.089560
0000000000776,00002.434574,00001.733785,00001.921069,00003.495849,00002.687456,00002.806047,00002.673908,00003.106022,00002.511950,00002.522617,-00000.390730,-00000.098028,-00000.575143,-00000.026870,-00000.019370,-00000.090205
0000000000777,00002.436042,00001.736329,00001.921538,00003.495315,00002.687920,00002.807179,00002.674295,00003.106152,00002.512462,00002.524385,-00000.392607,-00000.098771,-00000.575211,-00000.026325,-00000.018641,-00000.090754
0000000000778,00002.437523,00001.738996,00001.921650,00003.494810,00002.688355,00002.808539,00002.675008,00003.105992,00002.513188,00002.525897,-00000.394303,-00000.099414,-00000.575238,-00000.026140,-00000.018304,-00000.091304
0000000000779,00002.439135,00001.741525,00001.922049,00003.493993,00002.689112,00002.809866,00002.675700,00003.106103,00002.513624,00002.527765,-00000.396264,-00000.099684,-00000.575296,-00000.025676,-00000.018046,-00000.091771
0000000000780,00002.440758,00001.744158,00001.922144,00003.493563,00002.689845,00002.811024,00002.676669,00003.106330,00002.514605,00002.529415,-00000.398071,-00000.099869,-00000.575319,-00000.025155,-00000.018122,-00000.092239
0000000000781,00002.442494,00001.746310,00001.922484,00003.493593,00002.690128,00002.812516,00002.677258,00003.106786,00002.515339,00002.530642,-00000.399740,-00000.100098,-00000.575006,-00000.024760,-00000.018265,-00000.092636
0000000000782,00002.444239,00001.748552,00001.922928,00003.493590,00002.690389,00002.813864,00002.677721,00003.107342,00002.515811,00002.532047,-00000.401278,-00000.100255,-00000.574663,-00000.024317,-00000.017966,-00000.093397
0000000000783,00002.445716,00001.750384,00001.923217,00003.493252,00002.690629,00002.814772,00002.677860,00003.107731,00002.516436,00002.533091,-00000.402699,-00000.100451,-00000.574396,-00000.023618,-00000.017726,-00000.093736
0000000000784,00002.447201,00001.752656,00001.923595,00003.493250,00002.690851,00002.815920,00002.678253,00003.107841,00002.517201,00002.534287,-00000.404008,-00000.100585,-00000.574104,-00000.023240,-00000.017109,-00000.094021
0000000000785,00002.448459,00001.754578,00001.924204,00003.492963,00002.691419,00002.817055,00002.678734,00003.108173,00002.518095,00002.535539,-00000.405218,-00000.100751,-00000.573877,-00000.023008,-00000.016541,-00000.094309
0000000000786,00002.449723,00001.756512,00001.924526,00003.492960,00002.691971,00002.818032,00002.679069,00003.108629,00002.519109,00002.537283,-00000.406333,-00000.101228,-00000.573628,-00000.022324,-00000.015653,-00000.094552
0000000000787,00002.450794,00001.758511,00001.924681,00003.492716,00002.692454,00002.818999,00002.679116,00003.108911,00002.519871,00002.538712,-00000.407000,-00000.101732,-00000.573072,-00000.021764,-00000.014807,-00000.095160
0000000000788,00002.451870,00001.760157,00001.924955,00003.492714,00002.692561,00002.819831,00002.679401,00003.109300,00002.520734,00002.539833,-00000.407586,-00000.101775,-00000.572861,-00000.021181,-00000.014414,-00000.095729
0000000000789,00002.452782,00001.761860,00001.925087,00003.492506,00002.692609,00002.820653,00002.679804,00003.109540,00002.521382,00002.540687,-00000.408154,-00000.101842,-00000.572387,-00000.020704,-00000.014056,-00000.096247
0000000000790,00002.453698,00001.763261,00001.925321,00003.492504,00002.692701,00002.821362,00002.680046,00003.109871,00002.522117,00002.541642,-00000.408653,-00000.101879,-00000.572207,-00000.020208,-00000.013722,-00000.096731
0000000000791,00002.454474,00001.765073,00001.925433,00003.492327,00002.693105,00002.821699,00002.680752,00003.109712,00002.523032,00002.542731,-00000.409499,-00000.101936,-00000.572167,-00000.019802,-00000.013417,-00000.097172
0000000000792,00002.455617,00001.766266,00001.925632,00003.492325,00002.693545,00002.822302,00002.680959,00003.109631,00002.523295,00002.543906,-00000.409924,-00000.101967,-00000.571651,-00000.019017,-00000.012770,-00000.097585
0000000000793,00002.456277,00001.767808,00001.925728,00003.492537,00002.693889,00002.822952,00002.681559,00003.109496,00002.524436,00002.544834,-00000.410281,-00000.102015,-00000.571253,-00000.018309,-00000.012148,-00000.097960
0000000000794,00002.456888,00001.768824,00001.925897,00003.491448,00002.694264,00002.822740,00002.681735,00003.109427,00002.524660,00002.545835,-00000.411006,-00000.102042,-00000.570814,-00000.018003,-00000.011596,-00000.098674
0000000000795,00002.457450,00001.769774,00001.926341,00003.491265,00002.694919,00002.822931,00002.682246,00003.110038,00002.525269,00002.546987,-00000.411310,-00000.101720,-00000.570476,-00000.017400,-00000.011430,-00000.099356
0000000000796,00002.458332,00001.770638,00001.926848,00003.491063,00002.695601,00002.823113,00002.682396,00003.110705,00002.525822,00002.548202,-00000.411564,-00000.101742,-00000.570102,-00000.016778,-00000.010960,-00000.099601
0000000000797,00002.458811,00001.771810,00001.926864,00003.490908,00002.695797,00002.823275,00002.682469,00003.111225,00002.525978,00002.549182,-00000.411823,-00000.101831,-00000.570177,-00000.016264,-00000.010456,-00000.099819
0000000000798,00002.459562,00001.772546,00001.927295,00003.490373,00002.696377,00002.823430,00002.682959,00003.111793,00002.526449,00002.550579,-00000.412039,-00000.101851,-00000.569859,-00000.016097,-00000.010056,-00000.100028
0000000000799,00002.459969,00001.773544,00001.927671,00003.490241,00002.696906,00002.823569,00002.683383,00003.111510,00002.527307,00002.551414,-00000.412623,-00000.101926,-00000.569560,-00000.015659,-00000.009627,-00000.100213
0000000000800,00002.460609,00001.774533,00001.928038,00003.490512,00002.697038,00002.824426,00002.683801,00003.111993,00002.528070,00002.552241,-00000.412806,-00000.101943,-00000.569289,-00000.015154,-00000.009286,-00000.100391
0000000000801,00002.460956,00001.775382,00001.927996,00003.490036,00002.697125,00002.824544,00002.684162,00003.112115,00002.528438,00002.552952,-00000.413303,-00000.102007,-00000.569034,-00000.014782,-00000.008921,-00000.100549
0000000000802,00002.461500,00001.776224,00001.928308,00003.490266,00002.697237,00002.825274,00002.684880,00003.112163,00002.529088,00002.553655,-00000.413460,-00000.102021,-00000.568803,-00000.014715,-00000.008994,-00000.100700
0000000000803,00002.461795,00001.776947,00001.928272,00003.490225,00002.697312,00002.825374,00002.685188,00003.111904,00002.529401,00002.553535,-00000.413520,-00000.102076,-00000.568587,-00000.014761,-00000.009045,-00000.100835
0000000000804,00002.462258,00001.777664,00001.928538,00003.490058,00002.697770,00002.825633,00002.685799,00003.112308,00002.529592,00002.554497,-00000.414016,-00000.102088,-00000.568390,-00000.014703,-00000.009108,-00000.100601
0000000000805,00002.462873,00001.778280,00001.928870,00003.489659,00002.697833,00002.825718,00002.686061,00003.112451,00002.529496,00002.555120,-00000.414430,-00000.102135,-00000.568206,-00000.014743,-00000.009151,-00000.100715
0000000000806,00002.462904,00001.778890,00001.928734,00003.489155,00002.697861,00002.825575,00002.686219,00003.112069,00002.529658,00002.555213,-00000.414852,-00000.102145,-00000.568039,-00000.014694,-00000.009205,-00000.100879
0000000000807,00002.463427,00001.779414,00001.929016,00003.489541,00002.697915,00002.826373,00002.686442,00003.112553,00002.529939,00002.555743,-00000.415204,-00000.102185,-00000.567882,-00000.014727,-00000.008879,-00000.100976
0000000000808,00002.463817,00001.779934,00001.929626,00003.489474,00002.697938,00002.826615,00002.686576,00003.112954,00002.529714,00002.556185,-00000.415564,-00000.102193,-00000.567376,-00000.014686,-00000.008561,-00000.101115
0000000000809,00002.464262,00001.780742,00001.930229,00003.489077,00002.698347,00002.826932,00002.687128,00003.113366,00002.530316,00002.556637,-00000.415864,-00000.102227,-00000.567243,-00000.014351,-00000.007921,-00000.101198
0000000000810,00002.464231,00001.781185,00001.930385,00003.489020,00002.698366,00002.827137,00002.687243,00003.112982,00002.530488,00002.556650,-00000.416170,-00000.102234,-00000.567176,-00000.014316,-00000.007288,-00000.100954
0000000000811,00002.464973,00001.781873,00001.930899,00003.489046,00002.698714,00002.827407,00002.687350,00003.113332,00002.530274,00002.557397,-00000.416425,-00000.102263,-00000.567062,-00000.014031,-00000.006744,-00000.100662
0000000000812,00002.465672,00001.782250,00001.931032,00003.488997,00002.698368,00002.827944,00002.687085,00003.113368,00002.530420,00002.557409,-00000.416686,-00000.102269,-00000.567004,-00000.013638,-00000.006205,-00000.100817
0000000000813,00002.466303,00001.782836,00001.931469,00003.489018,00002.698664,00002.828537,00002.687539,00003.114029,00002.530964,00002.558045,-00000.416903,-00000.102294,-00000.566908,-00000.013396,-00000.005741,-00000.100931
0000000000814,00002.466899,00001.783519,00001.931945,00003.488977,00002.699095,00002.828995,00002.687676,00003.114785,00002.531089,00002.558418,-00000.417125,-00000.102299,-00000.566859,-00000.013061,-00000.005645,-00000.101062
0000000000815,00002.467436,00001.784018,00001.931954,00003.489358,00002.698985,00002.829499,00002.688063,00003.114622,00002.531552,00002.558234,-00000.417310,-00000.102320,-00000.566776,-00000.012855,-00000.005613,-00000.101160
0000000000816,00002.467943,00001.784600,00001.931997,00003.488960,00002.699352,00002.829526,00002.688542,00003.114903,00002.531658,00002.558551,-00000.417499,-00000.102325,-00000.566735,-00000.012570,-00000.005168,-00000.101272
0000000000817,00002.468763,00001.785025,00001.932368,00003.489285,00002.699620,00002.829955,00002.688508,00003.115127,00002.531689,00002.558757,-00000.417657,-00000.102342,-00000.566665,-00000.012757,-00000.004778,-00000.101354
0000000000818,00002.469195,00001.785157,00001.932404,00003.489671,00002.699570,00002.830703,00002.688916,00003.115366,00002.532142,00002.558664,-00000.417817,-00000.102346,-00000.566267,-00000.012515,-00000.004037,-00000.101450
0000000000819,00002.468805,00001.785519,00001.931994,00003.489222,00002.699436,00002.830706,00002.688888,00003.114832,00002.532169,00002.558477,-00000.417951,-00000.102361,-00000.565844,-00000.012312,-00000.003705,-00000.101158
0000000000820,00002.469172,00001.785994,00001.932025,00003.489551,00002.699393,00002.831343,00002.689235,00003.115035,00002.532554,00002.558398,-00000.418451,-00000.102002,-00000.565505,-00000.012105,-00000.003074,-00000.101239
0000000000821,00002.469565,00001.786302,00001.932401,00003.489169,00002.699642,00002.831346,00002.689211,00003.114943,00002.532214,00002.558601,-00000.418565,-00000.101652,-00000.565145,-00000.011569,-00000.002428,-00000.101353
0000000000822,00002.469878,00001.786344,00001.932427,00003.488723,00002.699605,00002.831162,00002.689144,00003.114753,00002.531817,00002.558534,-00000.418628,-00000.101346,-00000.564857,-00000.011031,-00000.001891,-00000.101422
0000000000823,00002.469850,00001.786606,00001.932022,00003.488760,00002.699817,00002.830801,00002.689123,00003.114675,00002.532253,00002.558344,-00000.418725,-00000.101048,-00000.564551,-00000.010574,-00000.001342,-00000.101519
0000000000824,00002.469754,00001.786642,00001.931682,00003.488018,00002.699786,00002.830283,00002.689066,00003.114513,00002.531915,00002.557924,-00000.418778,-00000.100788,-00000.564305,-00000.010479,-00000.000884,-00000.101215
0000000000825,00002.470093,00001.786865,00001.931337,00003.488413,00002.699603,00002.830338,00002.689411,00003.114809,00002.531924,00002.557400,-00000.418861,-00000.100534,-00000.564044,-00000.010453,-00000.000417,-00000.101298
0000000000826,00002.470373,00001.786896,00001.931410,00003.488144,00002.699576,00002.829897,00002.689362,00003.115035,00002.531636,00002.557405,-00000.418906,-00000.100675,-00000.563835,-00000.010009,-00000.000027,-00000.101039
0000000000827,00002.470662,00001.786723,00001.931479,00003.487754,00002.699784,00002.829581,00002.689294,00003.115287,00002.531643,00002.557322,-00000.418977,-00000.100459,-00000.563613,-00000.009624,00000.000371,-00000.101109
0000000000828,00002.470901,00001.786386,00001.931541,00003.487525,00002.699761,00002.829205,00002.688889,00003.115478,00002.531398,00002.556963,-00000.419015,-00000.100216,-00000.563435,-00000.009246,00000.000702,-00000.101252
0000000000829,00002.471147,00001.785876,00001.931238,00003.486468,00002.699575,00002.828937,00002.688468,00003.115693,00002.531041,00002.556892,-00000.418712,-00000.100033,-00000.562884,-00000.008919,00000.000679,-00000.101311
0000000000830,00002.471350,00001.785589,00001.930928,00003.485910,00002.699193,00002.828617,00002.688124,00003.115493,00002.530832,00002.556587,-00000.418383,-00000.099826,-00000.562369,-00000.008597,00000.000598,-00000.101433
0000000000831,00002.471197,00001.785155,00001.931032,00003.485010,00002.699034,00002.828388,00002.687765,00003.115676,00002.530166,00002.556164,-00000.418125,-00000.099669,-00000.561900,-00000.008318,00000.000940,-00000.101484
0000000000832,00002.471007,00001.785274,00001.930768,00003.484535,00002.699072,00002.828116,00002.687835,00003.115506,00002.529988,00002.555541,-00000.417844,-00000.099493,-00000.561462,-00000.008044,00000.000872,-00000.101587
0000000000833,00002.470513,00001.784904,00001.930131,00003.483043,00002.698937,00002.827558,00002.687529,00003.115299,00002.529784,00002.555181,-00000.417624,-00000.099360,-00000.561062,-00000.007807,00000.001163,-00000.101630
0000000000834,00002.470352,00001.785005,00001.929906,00003.482277,00002.698969,00002.827326,00002.687589,00003.115154,00002.529995,00002.555014,-00000.417748,-00000.098848,-00000.561052,-00000.007574,00000.001105,-00000.101718
0000000000835,00002.470294,00001.785053,00001.929727,00003.482095,00002.698854,00002.827215,00002.687329,00003.114978,00002.530184,00002.554344,-00000.417561,-00000.098734,-00000.560712,-00000.007009,00000.001353,-00000.101755
0000000000836,00002.470520,00001.784777,00001.929536,00003.481442,00002.698881,00002.827017,00002.687017,00003.115217,00002.530001,00002.554202,-00000.417667,-00000.098298,-00000.560340,-00000.006810,00000.001666,-00000.101830
0000000000837,00002.470471,00001.784455,00001.929383,00003.480562,00002.698421,00002.826922,00002.686432,00003.115067,00002.529436,00002.553632,-00000.417507,-00000.098201,-00000.560051,-00000.006329,00000.002240,-00000.101862
0000000000838,00002.470663,00001.784219,00001.929220,00003.480369,00002.698081,00002.827117,00002.686167,00003.115271,00002.529281,00002.553148,-00000.417234,-00000.098193,-00000.559735,-00000.006160,00000.002870,-00000.101925
0000000000839,00002.470621,00001.783945,00001.929090,00003.479982,00002.698052,00002.827036,00002.686032,00003.115506,00002.529163,00002.553025,-00000.417099,-00000.097748,-00000.559488,-00000.006114,00000.003358,-00000.101952
0000000000840,00002.470784,00001.783745,00001.928952,00003.479455,00002.697763,00002.826839,00002.685806,00003.115680,00002.529030,00002.552976,-00000.416866,-00000.097740,-00000.559219,-00000.005970,00000.003531,-00000.102369
0000000000841,00002.470749,00001.783874,00001.928841,00003.479489,00002.697738,00002.826770,00002.686054,00003.115517,00002.529293,00002.552872,-00000.416751,-00000.097362,-00000.559009,-00000.005930,00000.003585,-00000.102392
0000000000842,00002.470162,00001.783703,00001.928360,00003.478677,00002.697854,00002.826239,00002.685862,00003.114939,00002.529180,00002.552467,-00000.416553,-00000.097355,-00000.558780,-00000.005808,00000.003732,-00000.102384
0000000000843,00002.469770,00001.783814,00001.928266,00003.478343,00002.697833,00002.825818,00002.686073,00003.114801,00002.529403,00002.552016,-00000.416455,-00000.097396,-00000.558601,-00000.005774,00000.004140,-00000.102404
0000000000844,00002.469633,00001.783668,00001.928219,00003.478015,00002.697570,00002.825729,00002.685546,00003.115034,00002.529307,00002.551671,-00000.416287,-00000.097390,-00000.558406,-00000.005670,00000.004628,-00000.102034
0000000000845,00002.469299,00001.783400,00001.928139,00003.477368,00002.697914,00002.825370,00002.685726,00003.114916,00002.529134,00002.551287,-00000.416203,-00000.097425,-00000.558254,-00000.005278,00000.005338,-00000.102051
0000000000846,00002.469182,00001.783276,00001.927737,00003.477089,00002.697690,00002.825295,00002.685641,00003.114753,00002.529053,00002.550994,-00000.416422,-00000.097420,-00000.558088,-00000.004827,00000.006117,-00000.101736
0000000000847,00002.469260,00001.782684,00001.927669,00003.476538,00002.697258,00002.824989,00002.685068,00003.114652,00002.528543,00002.550666,-00000.416351,-00000.097087,-00000.557958,-00000.004856,00000.006358,-00000.101750
0000000000848,00002.469161,00001.782579,00001.927689,00003.476300,00002.697430,00002.824925,00002.684995,00003.114876,00002.528473,00002.550417,-00000.416175,-00000.097083,-00000.557817,-00000.004834,00000.006658,-00000.101845
0000000000849,00002.468865,00001.782438,00001.927268,00003.475831,00002.697062,00002.825027,00002.685234,00003.114790,00002.528765,00002.550138,-00000.416115,-00000.097161,-00000.557707,-00000.004860,00000.006501,-00000.101857
0000000000850,00002.468418,00001.782711,00001.927285,00003.475629,00002.697208,00002.824973,00002.685534,00003.114617,00002.529068,00002.549926,-00000.415965,-00000.097158,-00000.557586,-00000.004841,00000.006394,-00000.101938
0000000000851,00002.468166,00001.782591,00001.927290,00003.475229,00002.697258,00002.824697,00002.685737,00003.114545,00002.528954,00002.549688,-00000.415913,-00000.097225,-00000.557493,-00000.004863,00000.006260,-00000.101948
0000000000852,00002.468148,00001.782461,00001.927667,00003.475057,00002.697745,00002.824651,00002.685993,00003.114760,00002.528849,00002.549870,-00000.415786,-00000.097222,-00000.557390,-00000.004847,00000.006169,-00000.102017
0000000000853,00002.468296,00001.781996,00001.927671,00003.475080,00002.697787,00002.824779,00002.685803,00003.115061,00002.528389,00002.549668,-00000.415742,-00000.097280,-00000.557310,-00000.004865,00000.006418,-00000.101663
0000000000854,00002.468281,00001.781885,00001.927629,00003.474933,00002.697477,00002.824739,00002.685658,00003.114882,00002.528300,00002.549460,-00000.415996,-00000.096914,-00000.557223,-00000.004852,00000.006702,-00000.101359
0000000000855,00002.468044,00001.781852,00001.927633,00003.474590,00002.697513,00002.824486,00002.685497,00003.114413,00002.528271,00002.548926,-00000.415958,-00000.096600,-00000.557155,-00000.004867,00000.006915,-00000.101058
0000000000856,00002.468031,00001.781757,00001.927597,00003.474828,00002.697248,00002.824452,00002.685373,00003.114260,00002.528196,00002.548749,-00000.415812,-00000.096652,-00000.557081,-00000.004856,00000.006794,-00000.100799
0000000000857,00002.468192,00001.781729,00001.927600,00003.475261,00002.696916,00002.824962,00002.685235,00003.114586,00002.528171,00002.548294,-00000.415780,-00000.096748,-00000.557023,-00000.004869,00000.006612,-00000.100542
0000000000858,00002.468181,00001.781649,00001.927570,00003.474738,00002.697054,00002.824570,00002.685130,00003.114819,00002.527744,00002.548143,-00000.415656,-00000.096792,-00000.556960,-00000.004859,00000.006509,-00000.100322
0000000000859,00002.468319,00001.781625,00001.927572,00003.475107,00002.697496,00002.824642,00002.685739,00003.115097,00002.528085,00002.548481,-00000.415629,-00000.096510,-00000.556910,-00000.004871,00000.006354,-00000.100466
0000000000860,00002.467947,00001.781557,00001.927184,00003.475025,00002.697251,00002.823945,00002.686012,00003.114569,00002.528084,00002.547990,-00000.415522,-00000.096548,-00000.556857,-00000.004862,00000.005904,-00000.100641
0000000000861,00002.468063,00001.781536,00001.927186,00003.474976,00002.696902,00002.824006,00002.685804,00003.114806,00002.528012,00002.547552,-00000.415499,-00000.096671,-00000.556815,-00000.004872,00000.005772,-00000.100401
0000000000862,00002.468472,00001.781478,00001.927218,00003.475631,00002.696693,00002.824502,00002.686037,00003.115082,00002.528012,00002.547497,-00000.415409,-00000.096703,-00000.556769,-00000.004865,00000.005752,-00000.100187
0000000000863,00002.468209,00001.781461,00001.927220,00003.475227,00002.696759,00002.824191,00002.686223,00003.114921,00002.527951,00002.547124,-00000.415389,-00000.096445,-00000.556733,-00000.004873,00000.005639,-00000.099983
0000000000864,00002.468194,00001.781411,00001.927247,00003.475059,00002.696944,00002.824250,00002.686421,00003.115156,00002.527950,00002.547077,-00000.415313,-00000.096109,-00000.556694,-00000.004504,00000.005985,-00000.099801
0000000000865,00002.467970,00001.781396,00001.926886,00003.475441,00002.696637,00002.824348,00002.686217,00003.115018,00002.527898,00002.546760,-00000.415296,-00000.095890,-00000.556301,-00000.004148,00000.006252,-00000.099627
0000000000866,00002.467957,00001.781354,00001.926909,00003.474935,00002.696794,00002.824398,00002.686023,00003.115219,00002.527534,00002.546720,-00000.415230,-00000.095604,-00000.555905,-00000.003835,00000.006546,-00000.099473
0000000000867,00002.468129,00001.781342,00001.926602,00003.474897,00002.696533,00002.824481,00002.685849,00003.115465,00002.527490,00002.546450,-00000.415216,-00000.095417,-00000.555570,-00000.003894,00000.006048,-00000.099325
0000000000868,00002.468119,00001.781668,00001.926622,00003.474829,00002.697030,00002.824524,00002.686409,00003.115273,00002.527906,00002.546053,-00000.415160,-00000.095174,-00000.555596,-00000.003990,00000.005573,-00000.099193
0000000000869,00002.467902,00001.781658,00001.926360,00003.474797,00002.696445,00002.824595,00002.686261,00003.114756,00002.527506,00002.545460,-00000.415148,-00000.095015,-00000.555674,-00000.004041,00000.004786,-00000.099067
0000000000870,00002.467893,00001.781936,00001.926377,00003.475465,00002.696142,00002.824632,00002.686375,00003.114593,00002.527497,00002.544759,-00000.415101,-00000.094808,-00000.555695,-00000.004122,00000.004381,-00000.098954
0000000000871,00002.467709,00001.781927,00001.926516,00003.475437,00002.696370,00002.824692,00002.686612,00003.114516,00002.527519,00002.544618,-00000.415091,-00000.094672,-00000.555399,-00000.003803,00000.004074,-00000.098847
0000000000872,00002.467338,00001.781801,00001.926531,00003.474918,00002.696475,00002.824361,00002.686709,00003.114739,00002.527149,00002.544384,-00000.415050,-00000.094496,-00000.555055,-00000.003509,00000.004093,-00000.098752
0000000000873,00002.467181,00001.781793,00001.926650,00003.474894,00002.696669,00002.824049,00002.686910,00003.114674,00002.527168,00002.543901,-00000.415041,-00000.094380,-00000.555165,-00000.003600,00000.004194,-00000.097935
0000000000874,00002.467229,00001.781686,00001.926662,00003.476266,00002.696758,00002.824130,00002.686630,00003.114864,00002.526853,00002.543702,-00000.415007,-00000.094230,-00000.554872,-00000.003713,00000.004210,-00000.096765
0000000000875,00002.467458,00001.781679,00001.926763,00003.478060,00002.696560,00002.824227,00002.686802,00003.114808,00002.526506,00002.543290,-00000.415000,-00000.094495,-00000.554603,-00000.003790,00000.004296,-00000.095707
0000000000876,00002.467135,00001.781588,00001.926411,00003.478865,00002.696637,00002.824296,00002.686926,00003.114608,00002.526601,00002.542758,-00000.414970,-00000.094367,-00000.554717,-00000.003886,00000.004309,-00000.094711
0000000000877,00002.466968,00001.781583,00001.926497,00003.480029,00002.697194,00002.824379,00002.687072,00003.114560,00002.526668,00002.542407,-00000.415327,-00000.094592,-00000.554851,-00000.003952,00000.004745,-00000.093810
0000000000878,00002.466693,00001.781142,00001.926197,00003.481077,00002.696533,00002.824074,00002.686453,00003.114389,00002.526023,00002.541954,-00000.415665,-00000.094847,-00000.554947,-00000.004034,00000.005482,-00000.092962
0000000000879,00002.466913,00001.780775,00001.925908,00003.482431,00002.696282,00002.824145,00002.686214,00003.114349,00002.525718,00002.541656,-00000.415968,-00000.095038,-00000.555061,-00000.004090,00000.006579,-00000.091833
0000000000880,00002.466680,00001.780400,00001.925653,00003.483686,00002.695719,00002.824249,00002.685687,00003.114204,00002.525531,00002.540908,-00000.416618,-00000.095255,-00000.555143,-00000.004160,00000.008295,-00000.090386
0000000000881,00002.466504,00001.780087,00001.925769,00003.484839,00002.695505,00002.823946,00002.685484,00003.114169,00002.525271,00002.540654,-00000.416877,-00000.095418,-00000.555603,-00000.004570,00000.009955,-00000.088698
0000000000882,00002.466668,00001.779767,00001.925915,00003.486633,00002.695389,00002.824035,00002.685397,00003.114045,00002.525113,00002.540379,-00000.417068,-00000.095602,-00000.555673,-00000.004630,00000.012141,-00000.087103
0000000000883,00002.466156,00001.779138,00001.925651,00003.487614,00002.695207,00002.823051,00002.684862,00003.113653,00002.524529,00002.540163,-00000.417288,-00000.095378,-00000.555702,-00000.004254,00000.015005,-00000.085667
0000000000884,00002.465207,00001.778504,00001.925412,00003.488778,00002.695108,00002.821675,00002.684788,00003.113548,00002.524394,00002.539930,-00000.417450,-00000.095172,-00000.555761,-00000.003216,00000.019042,-00000.084309
0000000000885,00002.464408,00001.777605,00001.924825,00003.489976,00002.694590,00002.820113,00002.684332,00003.113214,00002.524259,00002.539383,-00000.417637,-00000.094982,-00000.555423,-00000.001807,00000.023294,-00000.083449
0000000000886,00002.463963,00001.776702,00001.924621,00003.491693,00002.694506,00002.818941,00002.684270,00003.113487,00002.524507,00002.539184,-00000.417413,-00000.094443,-00000.555111,-00000.000561,00000.027457,-00000.083019
0000000000887,00002.463646,00001.775575,00001.924121,00003.492713,00002.693703,00002.817974,00002.683519,00003.113566,00002.524030,00002.538356,-00000.416847,-00000.093556,-00000.554460,00000.000638,00000.030714,-00000.083375
0000000000888,00002.462542,00001.774443,00001.922860,00003.494175,00002.692905,00002.816977,00002.683103,00003.113073,00002.523878,00002.537461,-00000.415930,-00000.092735,-00000.553831,00000.002062,00000.033533,-00000.083735
0000000000889,00002.461183,00001.773483,00001.922071,00003.496494,00002.692584,00002.815790,00002.682463,00003.113140,00002.523834,00002.536756,-00000.415085,-00000.091616,-00000.552915,00000.003809,00000.037031,-00000.084401
0000000000890,00002.459880,00001.771794,00001.921360,00003.497376,00002.691905,00002.814216,00002.681384,00003.112720,00002.522980,00002.535994,-00000.414668,-00000.090917,-00000.552017,00000.005383,00000.040519,-00000.084707
0000000000891,00002.458724,00001.770252,00001.920689,00003.498987,00002.690906,00002.813569,00002.680477,00003.112777,00002.522580,00002.535394,-00000.413948,-00000.089965,-00000.551236,00000.006870,00000.043134,-00000.084911
0000000000892,00002.457252,00001.768451,00001.919721,00003.499375,00002.689966,00002.812228,00002.679195,00003.112782,00002.522215,00002.534745,-00000.412867,-00000.088644,-00000.550472,00000.008574,00000.045377,-00000.085534
0000000000893,00002.455905,00001.767138,00001.918787,00003.500021,00002.689478,00002.810952,00002.678785,00003.112468,00002.521875,00002.533871,-00000.411530,-00000.087471,-00000.550170,00000.009477,00000.046878,-00000.086796
0000000000894,00002.454651,00001.765968,00001.917962,00003.501077,00002.688677,00002.810173,00002.678057,00003.112472,00002.521564,00002.532957,-00000.409884,-00000.085984,-00000.549520,00000.010564,00000.047699,-00000.089141
0000000000895,00002.453867,00001.764487,00001.917530,00003.501265,00002.687899,00002.809087,00002.677345,00003.112205,00002.520911,00002.532213,-00000.408745,-00000.084985,-00000.548900,00000.011695,00000.048614,-00000.091304
0000000000896,00002.452801,00001.763128,00001.916828,00003.501438,00002.687218,00002.808061,00002.676362,00003.112209,00002.520284,00002.531434,-00000.407344,-00000.084082,-00000.548709,00000.012258,00000.048951,-00000.092937
0000000000897,00002.451770,00001.762230,00001.916097,00003.501597,00002.686555,00002.807136,00002.675757,00003.111981,00002.520091,00002.530438,-00000.405649,-00000.083231,-00000.548544,00000.012859,00000.048641,-00000.094415
0000000000898,00002.450499,00001.761074,00001.915500,00003.502107,00002.685975,00002.805901,00002.675283,00003.111622,00002.519557,00002.529412,-00000.404093,-00000.082463,-00000.548744,00000.012612,00000.047476,-00000.095443
0000000000899,00002.449622,00001.759946,00001.914878,00003.502969,00002.685048,00002.805113,00002.674404,00003.111428,00002.519031,00002.528564,-00000.402650,-00000.081739,-00000.548967,00000.012398,00000.046125,-00000.095976
0000000000900,00002.448540,00001.758599,00001.914369,00003.503040,00002.684555,00002.804424,00002.674001,00003.111122,00002.518576,00002.527691,-00000.401326,-00000.081447,-00000.549500,00000.012188,00000.044770,-00000.096851
0000000000901,00002.447431,00001.757277,00001.913840,00003.502685,00002.684128,00002.803391,00002.673616,00003.110957,00002.517765,00002.526606,-00000.400097,-00000.081556,-00000.550052,00000.011643,00000.043982,-00000.097667
0000000000902,00002.446510,00001.756492,00001.913407,00003.503109,00002.683345,00002.802441,00002.673272,00003.110333,00002.517378,00002.525137,-00000.398970,-00000.081671,-00000.550506,00000.011101,00000.042829,-00000.098049
0000000000903,00002.445202,00001.755367,00001.912956,00003.502807,00002.682982,00002.801199,00002.672945,00003.109830,00002.517050,00002.523851,-00000.397924,-00000.081764,-00000.550976,00000.010637,00000.041433,-00000.098744
0000000000904,00002.444418,00001.754336,00001.912587,00003.502442,00002.682678,00002.800391,00002.672652,00003.109662,00002.516358,00002.522600,-00000.396964,-00000.081861,-00000.551363,00000.010176,00000.040088,-00000.099432
0000000000905,00002.443668,00001.753015,00001.912203,00003.502184,00002.681644,00002.799696,00002.672011,00003.109597,00002.515353,00002.521143,-00000.396074,-00000.081941,-00000.552126,00000.009781,00000.039262,-00000.099661
0000000000906,00002.443001,00001.751775,00001.911527,00003.502236,00002.680660,00002.799008,00002.671399,00003.109454,00002.514764,00002.519715,-00000.395257,-00000.082386,-00000.553180,00000.009026,00000.038481,-00000.099521
0000000000907,00002.442362,00001.750650,00001.911563,00003.502380,00002.680142,00002.798416,00002.670853,00003.109398,00002.513908,00002.518474,-00000.394499,-00000.082817,-00000.554193,00000.008326,00000.037778,-00000.098990
0000000000908,00002.441794,00001.749595,00001.911712,00003.502062,00002.679667,00002.797830,00002.670695,00003.109276,00002.513044,00002.517259,-00000.393804,-00000.083559,-00000.555090,00000.007684,00000.037475,-00000.098871
0000000000909,00002.441250,00001.748637,00001.911380,00003.502547,00002.678863,00002.797327,00002.670592,00003.109591,00002.512679,00002.516203,-00000.393158,-00000.083925,-00000.555952,00000.007088,00000.037239,-00000.099145
0000000000910,00002.440404,00001.747376,00001.911145,00003.502276,00002.678459,00002.796103,00002.670095,00003.109488,00002.511580,00002.514806,-00000.392566,-00000.084194,-00000.557079,00000.006541,00000.036619,-00000.099769
0000000000911,00002.439941,00001.746198,00001.910862,00003.502326,00002.678137,00002.795311,00002.669645,00003.109756,00002.510543,00002.513906,-00000.392017,-00000.084506,-00000.557813,00000.006034,00000.035692,-00000.100365
0000000000912,00002.439220,00001.745124,00001.910662,00003.502458,00002.677067,00002.794632,00002.668859,00003.109668,00002.509971,00002.512717,-00000.391513,-00000.085098,-00000.558772,00000.005931,00000.035164,-00000.101259
0000000000913,00002.438464,00001.744121,00001.910421,00003.502501,00002.676431,00002.793958,00002.668476,00003.109534,00002.509451,00002.511588,-00000.391408,-00000.085726,-00000.559760,00000.005500,00000.034738,-00000.102129
0000000000914,00002.437850,00001.743570,00001.910250,00003.502976,00002.675883,00002.793742,00002.668532,00003.109821,00002.508964,00002.510576,-00000.391342,-00000.086230,-00000.560576,00000.005049,00000.033926,-00000.102890
0000000000915,00002.437206,00001.743079,00001.910046,00003.503375,00002.675704,00002.793169,00002.668932,00003.109344,00002.508884,00002.509615,-00000.390890,-00000.086765,-00000.561417,00000.004682,00000.032838,-00000.103994
0000000000916,00002.436684,00001.742247,00001.909900,00003.503417,00002.674875,00002.792622,00002.668617,00003.109226,00002.508106,00002.508753,-00000.390833,-00000.087194,-00000.562112,00000.004298,00000.031784,-00000.105005
0000000000917,00002.435772,00001.741829,00001.909726,00003.503394,00002.674722,00002.792134,00002.668594,00003.109183,00002.507676,00002.507935,-00000.390811,-00000.087649,-00000.562828,00000.004348,00000.030857,-00000.106307
0000000000918,00002.434965,00001.741483,00001.909602,00003.503067,00002.674742,00002.791306,00002.668689,00003.109083,00002.507376,00002.507564,-00000.390763,-00000.088014,-00000.563420,00000.004385,00000.030323,-00000.107893
0000000000919,00002.434552,00001.740765,00001.909817,00003.502685,00002.674612,00002.790891,00002.668670,00003.109409,00002.507010,00002.507231,-00000.390745,-00000.088764,-00000.564392,00000.004065,00000.030260,-00000.109001
0000000000920,00002.434227,00001.740833,00001.910074,00003.502406,00002.674992,00002.790549,00002.669113,00003.109323,00002.507118,00002.506552,-00000.390704,-00000.089438,-00000.565258,00000.003733,00000.030167,-00000.109626
0000000000921,00002.433876,00001.740584,00001.910257,00003.502443,00002.674518,00002.790557,00002.668734,00003.109238,00002.506806,00002.505906,-00000.391051,-00000.090077,-00000.566086,00000.003097,00000.030113,-00000.109844
0000000000922,00002.433600,00001.740280,00001.910476,00003.502569,00002.674116,00002.790629,00002.668386,00003.108802,00002.506535,00002.504965,-00000.391379,-00000.090650,-00000.566824,00000.002452,00000.030035,-00000.110013
0000000000923,00002.432938,00001.739705,00001.910631,00003.502601,00002.673713,00002.790274,00002.668063,00003.108730,00002.506270,00002.504415,-00000.391674,-00000.091194,-00000.567528,00000.002274,00000.029989,-00000.110562
0000000000924,00002.432702,00001.739446,00001.911180,00003.502345,00002.673733,00002.789972,00002.668130,00003.108722,00002.506039,00002.504340,-00000.391953,-00000.091682,-00000.567793,00000.002087,00000.030285,-00000.111068
0000000000925,00002.432864,00001.739320,00001.912038,00003.502372,00002.673753,00002.789670,00002.667855,00003.108660,00002.505813,00002.504234,-00000.392204,-00000.092145,-00000.568393,00000.002299,00000.030972,-00000.111535
0000000000926,00002.432664,00001.739462,00001.912506,00003.502517,00002.673407,00002.789776,00002.667549,00003.108290,00002.505617,00002.503807,-00000.392805,-00000.092561,-00000.568982,00000.002503,00000.031949,-00000.111966
0000000000927,00002.432439,00001.740080,00001.912873,00003.502903,00002.673424,00002.789881,00002.667678,00003.108237,00002.505787,00002.503717,-00000.393382,-00000.093318,-00000.569129,00000.002682,00000.032896,-00000.112001
0000000000928,00002.432632,00001.740201,00001.913272,00003.503026,00002.673130,00002.789971,00002.667417,00003.108286,00002.505620,00002.503717,-00000.393893,-00000.093672,-00000.569268,00000.002856,00000.033728,-00000.112006
0000000000929,00002.432803,00001.740364,00001.913584,00003.502992,00002.673507,00002.790061,00002.667527,00003.108604,00002.505402,00002.503640,-00000.394384,-00000.093953,-00000.569393,00000.003009,00000.034535,-00000.112398
0000000000930,00002.432604,00001.740830,00001.913561,00003.503097,00002.673619,00002.789775,00002.667668,00003.108282,00002.505622,00002.503277,-00000.394819,-00000.094254,-00000.569511,00000.003157,00000.034881,-00000.112764
0000000000931,00002.433112,00001.741332,00001.914190,00003.503430,00002.673578,00002.790214,00002.667761,00003.108552,00002.505800,00002.503211,-00000.395237,-00000.094494,-00000.569255,00000.003287,00000.035204,-00000.113098
0000000000932,00002.432943,00001.742091,00001.914532,00003.503157,00002.673673,00002.789970,00002.668244,00003.108641,00002.505988,00002.503265,-00000.395245,-00000.094750,-00000.568993,00000.003413,00000.035136,-00000.113410
0000000000933,00002.433013,00001.742518,00001.915068,00003.503078,00002.673638,00002.790344,00002.667961,00003.108872,00002.506139,00002.503210,-00000.395238,-00000.094592,-00000.568775,00000.003161,00000.034323,-00000.113695
0000000000934,00002.433232,00001.742802,00001.915722,00003.502845,00002.674082,00002.790500,00002.668009,00003.108947,00002.505936,00002.503255,-00000.395244,-00000.094447,-00000.568551,00000.002906,00000.033539,-00000.113960
0000000000935,00002.433292,00001.743166,00001.916178,00003.502416,00002.674415,00002.790455,00002.667767,00003.109144,00002.505701,00002.503571,-00000.395238,-00000.094312,-00000.568003,00000.003054,00000.032484,-00000.114202
0000000000936,00002.433478,00001.743407,00001.916735,00003.502217,00002.674067,00002.790588,00002.667446,00003.109208,00002.505891,00002.503247,-00000.394881,-00000.093826,-00000.567450,00000.002836,00000.031454,-00000.114428
0000000000937,00002.433528,00001.743354,00001.917123,00003.501489,00002.674350,00002.790550,00002.667240,00003.109012,00002.505692,00002.503152,-00000.394513,-00000.093348,-00000.566984,00000.002600,00000.029831,-00000.114635
0000000000938,00002.433687,00001.743559,00001.917597,00003.500957,00002.674780,00002.790662,00002.667329,00003.108704,00002.505854,00002.503239,-00000.394209,-00000.092935,-00000.566513,00000.002415,00000.027865,-00000.114827
0000000000939,00002.433730,00001.743877,00001.917565,00003.501425,00002.674658,00002.790993,00002.667517,00003.108537,00002.506410,00002.503159,-00000.393896,-00000.092528,-00000.565753,00000.002213,00000.026120,-00000.115002
0000000000940,00002.433865,00001.744052,00001.918332,00003.501336,00002.675024,00002.791452,00002.667593,00003.108638,00002.506547,00002.503596,-00000.393637,-00000.092176,-00000.564989,00000.002056,00000.024447,-00000.115166
0000000000941,00002.434265,00001.744322,00001.919030,00003.501008,00002.675283,00002.791733,00002.667753,00003.108859,00002.506658,00002.503528,-00000.393008,-00000.091467,-00000.564342,00000.001521,00000.022236,-00000.115316
0000000000942,00002.434379,00001.744834,00001.919319,00003.501295,00002.675232,00002.792124,00002.667817,00003.108582,00002.507138,00002.503174,-00000.392425,-00000.091167,-00000.563692,00000.001024,00000.020086,-00000.115818
0000000000943,00002.434357,00001.745427,00001.919551,00003.501379,00002.675090,00002.792363,00002.667591,00003.108407,00002.507594,00002.502753,-00000.391889,-00000.090564,-00000.563504,00000.000570,00000.017479,-00000.116308
0000000000944,00002.434817,00001.745500,00001.920160,00003.501260,00002.675409,00002.792696,00002.667646,00003.108534,00002.507640,00002.502815,-00000.391392,-00000.089946,-00000.562951,00000.000146,00000.014923,-00000.116735
0000000000945,00002.434798,00001.746004,00001.920357,00003.500606,00002.675651,00002.792537,00002.667816,00003.108022,00002.507666,00002.502819,-00000.390936,-00000.089432,-00000.562428,-00000.000241,00000.012703,-00000.117515
0000000000946,00002.434827,00001.746066,00001.920513,00003.501231,00002.675922,00002.793182,00002.667862,00003.108130,00002.508068,00002.502872,-00000.390514,-00000.088906,-00000.561594,-00000.000238,00000.011253,-00000.117879
0000000000947,00002.434811,00001.746133,00001.920681,00003.501400,00002.675765,00002.793773,00002.668007,00003.108058,00002.508453,00002.502876,-00000.389763,-00000.088468,-00000.561149,-00000.000568,00000.010088,-00000.118180
0000000000948,00002.435199,00001.746186,00001.920451,00003.501931,00002.675634,00002.794323,00002.668047,00003.108150,00002.508795,00002.502921,-00000.389040,-00000.088020,-00000.560802,-00000.000928,00000.008491,-00000.118490
0000000000949,00002.435185,00001.746243,00001.920594,00003.501712,00002.675863,00002.794462,00002.668533,00003.107725,00002.509123,00002.502924,-00000.388401,-00000.087648,-00000.560060,-00000.001209,00000.006774,-00000.118384
0000000000950,00002.435515,00001.746288,00001.920761,00003.502165,00002.676114,00002.794930,00002.668566,00003.107803,00002.509414,00002.502962,-00000.387785,-00000.087267,-00000.559764,-00000.001153,00000.005052,-00000.118648
0000000000951,00002.435503,00001.745974,00001.920882,00003.501978,00002.675946,00002.795049,00002.668254,00003.107805,00002.509330,00002.502602,-00000.387241,-00000.086950,-00000.559133,-00000.001029,00000.003953,-00000.119283
0000000000952,00002.435421,00001.746012,00001.921025,00003.501275,00002.676522,00002.795085,00002.668646,00003.107871,00002.509215,00002.503360,-00000.387080,-00000.086262,-00000.558519,-00000.000619,00000.003212,-00000.120233
0000000000953,00002.435411,00001.746107,00001.921128,00003.501117,00002.676379,00002.795186,00002.668743,00003.107509,00002.509507,00002.503779,-00000.386980,-00000.085630,-00000.557981,-00000.000151,00000.002277,-00000.120773
0000000000954,00002.435704,00001.746140,00001.921249,00003.500518,00002.676507,00002.795217,00002.668714,00003.107566,00002.509409,00002.504424,-00000.386843,-00000.085407,-00000.557458,-00000.000164,00000.001283,-00000.120857
0000000000955,00002.436421,00001.746221,00001.921700,00003.500383,00002.677111,00002.796028,00002.668797,00003.107984,00002.509657,00002.505144,-00000.386757,-00000.084869,-00000.557001,-00000.000128,00000.000487,-00000.120954
0000000000956,00002.436671,00001.746249,00001.921803,00003.500236,00002.676857,00002.796417,00002.668772,00003.108032,00002.509937,00002.505330,-00000.386640,-00000.084679,-00000.556555,00000.000223,00000.000367,-00000.121025
0000000000957,00002.436918,00001.745955,00001.922187,00003.500121,00002.677009,00002.796382,00002.668842,00003.108388,00002.510148,00002.506306,-00000.386568,-00000.084584,-00000.555803,00000.000617,00000.000777,-00000.121471
0000000000958,00002.437131,00001.745978,00001.922637,00003.499633,00002.677518,00002.796350,00002.668821,00003.108429,00002.510023,00002.506827,-00000.386468,-00000.084422,-00000.555424,00000.000916,00000.001401,-00000.121168
0000000000959,00002.437342,00001.746454,00001.922601,00003.499173,00002.678373,00002.796321,00002.669244,00003.108006,00002.510203,00002.507295,-00000.386406,-00000.084341,-00000.555146,00000.001250,00000.001387,-00000.120459
0000000000960,00002.437885,00001.746837,00001.922985,00003.498757,00002.679169,00002.796657,00002.669588,00003.108404,00002.510459,00002.508102,-00000.386322,-00000.084204,-00000.554461,00000.001505,00000.000830,-00000.119839
0000000000961,00002.438427,00001.747241,00001.923317,00003.498365,00002.679534,00002.796995,00002.669585,00003.108406,00002.510250,00002.508862,-00000.386632,-00000.084134,-00000.553862,00000.001427,00000.000093,-00000.118873
0000000000962,00002.438890,00001.747567,00001.923643,00003.498012,00002.680574,00002.797280,00002.669879,00003.108745,00002.510468,00002.509912,-00000.386923,-00000.084018,-00000.553278,00000.001281,-00000.000745,-00000.118345
0000000000963,00002.439352,00001.748275,00001.923926,00003.498403,00002.681248,00002.797568,00002.670602,00003.108747,00002.511015,00002.510560,-00000.387186,-00000.083959,-00000.553131,00000.001215,-00000.001372,-00000.117522
0000000000964,00002.439746,00001.748915,00001.924204,00003.498102,00002.682134,00002.797811,00002.671214,00003.109036,00002.511564,00002.511453,-00000.387434,-00000.083859,-00000.552997,00000.001091,-00000.001723,-00000.116710
0000000000965,00002.440502,00001.749517,00001.924445,00003.498073,00002.682707,00002.798419,00002.671830,00003.109038,00002.512029,00002.512005,-00000.387659,-00000.083809,-00000.552872,00000.000672,-00000.002619,-00000.115646
0000000000966,00002.441200,00001.749700,00001.924681,00003.498180,00002.682735,00002.798988,00002.671989,00003.109283,00002.512134,00002.512402,-00000.387869,-00000.083724,-00000.552757,00000.000203,-00000.003643,-00000.114592
0000000000967,00002.441843,00001.750212,00001.924886,00003.498155,00002.683223,00002.799506,00002.672150,00003.109648,00002.512530,00002.512872,-00000.388061,-00000.083319,-00000.552651,-00000.000154,-00000.004407,-00000.114050
0000000000968,00002.442437,00001.750730,00001.925088,00003.498246,00002.683611,00002.799991,00002.672285,00003.109857,00002.512982,00002.513573,-00000.388240,-00000.083247,-00000.552554,-00000.000553,-00000.005641,-00000.113878
0000000000969,00002.442985,00001.751529,00001.925262,00003.498224,00002.684026,00002.800431,00002.672785,00003.109804,00002.513682,00002.513973,-00000.388403,-00000.083264,-00000.552463,-00000.000857,-00000.006654,-00000.113779
0000000000970,00002.443491,00001.752333,00001.925434,00003.497939,00002.684718,00002.800481,00002.673263,00003.109256,00002.514067,00002.514207,-00000.388919,-00000.083203,-00000.552380,-00000.001559,-00000.008067,-00000.113633
0000000000971,00002.444320,00001.753376,00001.925945,00003.497195,00002.685435,00002.800856,00002.674052,00003.109574,00002.514300,00002.515273,-00000.389420,-00000.083218,-00000.552303,-00000.002180,-00000.009655,-00000.113549
0000000000972,00002.445114,00001.754423,00001.926454,00003.496952,00002.686024,00002.801624,00002.674095,00003.109834,00002.514627,00002.516198,-00000.390222,-00000.083166,-00000.552595,-00000.002778,-00000.011584,-00000.113424
0000000000973,00002.446182,00001.755311,00001.926889,00003.497044,00002.686997,00002.802669,00002.674767,00003.110830,00002.515189,00002.517468,-00000.391011,-00000.083178,-00000.552892,-00000.003307,-00000.012936,-00000.113715
0000000000974,00002.447221,00001.756928,00001.927322,00003.496475,00002.687861,00002.802960,00002.675530,00003.111051,00002.515830,00002.518619,-00000.391331,-00000.083134,-00000.553141,-00000.003816,-00000.014578,-00000.113972
0000000000975,00002.448130,00001.758773,00001.927693,00003.496191,00002.688689,00002.803124,00002.676464,00003.111174,00002.516671,00002.519700,-00000.391640,-00000.083145,-00000.553394,-00000.004629,-00000.016454,-00000.114220
0000000000976,00002.449377,00001.760149,00001.928424,00003.496431,00002.689425,00002.804460,00002.677476,00003.111724,00002.517580,00002.520679,-00000.391912,-00000.083107,-00000.553606,-00000.005426,-00000.018578,-00000.114076
0000000000977,00002.450514,00001.761719,00001.928740,00003.496189,00002.690130,00002.805325,00002.677909,00003.112191,00002.517933,00002.521962,-00000.392539,-00000.083116,-00000.553821,-00000.006481,-00000.020900,-00000.113924
0000000000978,00002.451576,00001.763254,00001.928999,00003.496394,00002.690757,00002.806463,00002.678408,00003.112660,00002.518706,00002.523159,-00000.393496,-00000.083447,-00000.554364,-00000.007521,-00000.023071,-00000.113438
0000000000979,00002.452544,00001.764953,00001.929268,00003.496551,00002.691357,00002.807199,00002.678776,00003.112695,00002.519370,00002.524251,-00000.394392,-00000.083817,-00000.554910,-00000.008782,-00000.025411,-00000.112946
0000000000980,00002.453447,00001.766985,00001.929489,00003.496726,00002.692253,00002.808168,00002.679926,00003.113094,00002.520391,00002.525633,-00000.395207,-00000.084099,-00000.555373,-00000.010031,-00000.027985,-00000.112533
0000000000981,00002.454634,00001.769158,00001.930443,00003.496496,00002.693127,00002.809158,00002.680603,00003.113487,00002.520956,00002.527288,-00000.396332,-00000.084777,-00000.556200,-00000.011104,-00000.030702,-00000.112114
0000000000982,00002.455403,00001.771250,00001.930995,00003.495919,00002.693527,00002.809619,00002.681219,00003.113464,00002.521825,00002.528827,-00000.397751,-00000.085379,-00000.556957,-00000.012530,-00000.032893,-00000.111762
0000000000983,00002.456777,00001.773462,00001.931807,00003.495724,00002.694271,00002.810462,00002.681432,00003.113798,00002.522669,00002.530236,-00000.399072,-00000.086319,-00000.557661,-00000.013444,-00000.034481,-00000.111043
0000000000984,00002.457794,00001.775606,00001.932276,00003.495596,00002.694974,00002.811217,00002.681957,00003.114141,00002.523409,00002.531546,-00000.400281,-00000.086832,-00000.558305,-00000.014295,-00000.036346,-00000.110380
0000000000985,00002.458600,00001.778215,00001.932605,00003.495429,00002.695607,00002.811935,00002.682864,00003.114063,00002.524490,00002.533109,-00000.401405,-00000.087270,-00000.559268,-00000.015435,-00000.038786,-00000.109768
0000000000986,00002.459467,00001.781129,00001.932641,00003.494957,00002.696206,00002.812578,00002.683673,00003.114355,00002.525483,00002.534587,-00000.402797,-00000.087706,-00000.560179,-00000.016523,-00000.041462,-00000.109204
0000000000987,00002.460516,00001.783713,00001.932921,00003.494090,00002.697108,00002.813551,00002.684808,00003.115014,00002.526403,00002.536280,-00000.404117,-00000.088442,-00000.560998,-00000.017131,-00000.043903,-00000.108683
0000000000988,00002.461979,00001.786919,00001.933678,00003.493688,00002.698343,00002.814462,00002.685860,00003.115625,00002.527248,00002.537901,-00000.405664,-00000.089176,-00000.561774,-00000.018056,-00000.046544,-00000.107840
0000000000989,00002.463235,00001.789844,00001.933916,00003.492950,00002.699111,00002.815291,00002.686463,00003.116186,00002.528031,00002.539342,-00000.407150,-00000.089802,-00000.562471,-00000.018574,-00000.048621,-00000.107033
0000000000990,00002.464480,00001.792573,00001.934198,00003.491882,00002.699800,00002.816066,00002.686996,00003.116707,00002.528388,00002.540722,-00000.408468,-00000.090427,-00000.562769,-00000.018999,-00000.050144,-00000.106316
0000000000991,00002.465549,00001.795063,00001.934401,00003.490528,00002.700816,00002.816771,00002.687510,00003.117184,00002.528692,00002.542312,-00000.409733,-00000.090960,-00000.563363,-00000.019803,-00000.052275,-00000.105266
0000000000992,00002.466610,00001.797387,00001.934640,00003.489982,00002.701040,00002.817794,00002.687963,00003.117628,00002.529359,00002.543486,-00000.410854,-00000.091493,-00000.563616,-00000.020165,-00000.054297,-00000.104293
0000000000993,00002.467520,00001.799506,00001.934813,00003.488830,00002.701542,00002.818032,00002.688763,00003.117671,00002.529618,00002.544477,-00000.411932,-00000.091946,-00000.563759,-00000.020486,-00000.056111,-00000.103762
0000000000994,00002.468422,00001.801484,00001.935017,00003.488002,00002.702458,00002.818539,00002.689149,00003.118049,00002.529822,00002.545840,-00000.412886,-00000.092399,-00000.564337,-00000.021157,-00000.058195,-00000.103296
0000000000995,00002.469197,00001.803289,00001.935164,00003.487021,00002.702886,00002.819105,00002.689830,00003.118811,00002.530405,00002.547046,-00000.413803,-00000.092786,-00000.564458,-00000.021793,-00000.060102,-00000.102482
0000000000996,00002.469966,00001.805335,00001.935337,00003.486316,00002.703303,00002.819900,00002.690159,00003.118770,00002.530942,00002.547480,-00000.414616,-00000.093171,-00000.564951,-00000.022365,-00000.061876,-00000.101359
0000000000997,00002.470625,00001.806872,00001.935463,00003.485481,00002.703667,00002.820381,00002.690376,00003.118694,00002.531439,00002.547782,-00000.415397,-00000.093500,-00000.565417,-00000.022906,-00000.063137,-00000.099940
0000000000998,00002.471279,00001.808251,00001.935610,00003.484155,00002.703659,00002.820695,00002.690293,00003.119021,00002.531533,00002.548514,-00000.416089,-00000.094191,-00000.565836,-00000.023392,-00000.063922,-00000.098622
0000000000999,00002.471841,00001.809559,00001.935717,00003.482719,00002.703969,00002.820742,00002.690841,00003.118956,00002.531956,00002.549133,-00000.417116,-00000.094471,-00000.566233,-00000.023854,-00000.064270,-00000.097777
0000000001000,00002.472398,00001.811096,00001.935843,00003.480865,00002.704688,00002.821009,00002.691133,00003.119235,00002.532399,00002.550120,-00000.417705,-00000.095060,-00000.566590,-00000.024267,-00000.064575,-00000.097018
0000000001001,00002.472876,00001.812572,00001.935933,00003.479279,00002.705315,00002.821412,00002.691599,00003.119542,00002.532396,00002.550647,-00000.418580,-00000.095661,-00000.566928,-00000.025023,-00000.064871,-00000.095935
0000000001002,00002.473350,00001.813881,00001.935678,00003.478426,00002.705564,00002.822002,00002.691848,00003.119417,00002.532773,00002.550761,-00000.419081,-00000.096161,-00000.567232,-00000.025375,-00000.064768,-00000.094563
0000000001003,00002.474120,00001.815138,00001.935755,00003.477439,00002.706097,00002.822345,00002.692244,00003.119679,00002.532770,00002.551573,-00000.419463,-00000.096673,-00000.567519,-00000.026018,-00000.065020,-00000.093279
0000000001004,00002.474886,00001.816252,00001.935900,00003.475987,00002.706309,00002.822485,00002.692456,00003.119934,00002.532729,00002.552033,-00000.419890,-00000.097100,-00000.567778,-00000.026318,-00000.065658,-00000.092111
0000000001005,00002.475179,00001.817321,00001.935966,00003.474784,00002.706764,00002.823139,00002.692794,00003.120520,00002.532727,00002.552724,-00000.420578,-00000.097535,-00000.568023,-00000.026503,-00000.066598,-00000.091018
0000000001006,00002.475468,00001.818632,00001.935727,00003.473548,00002.706944,00002.822895,00002.693337,00003.120375,00002.532691,00002.552753,-00000.421304,-00000.097898,-00000.567880,-00000.026395,-00000.067504,-00000.090386
0000000001007,00002.476080,00001.819543,00001.935783,00003.472524,00002.706605,00002.823090,00002.693262,00003.120511,00002.532689,00002.552978,-00000.421889,-00000.098269,-00000.567726,-00000.026553,-00000.068667,-00000.090181
0000000001008,00002.476689,00001.820659,00001.935942,00003.471109,00002.706759,00002.823245,00002.693361,00003.120388,00002.532659,00002.553365,-00000.422507,-00000.098578,-00000.567604,-00000.026824,-00000.069438,-00000.089644
0000000001009,00002.477210,00001.821797,00001.935989,00003.470600,00002.706833,00002.823773,00002.693297,00003.120866,00002.533020,00002.553920,-00000.423006,-00000.098894,-00000.567836,-00000.026958,-00000.070429,-00000.089106
0000000001010,00002.477003,00001.822385,00001.935762,00003.469396,00002.706964,00002.823543,00002.693382,00003.120761,00002.532995,00002.554250,-00000.423532,-00000.099157,-00000.567732,-00000.027189,-00000.071811,-00000.088286
0000000001011,00002.477084,00001.823716,00001.935802,00003.468600,00002.707027,00002.823630,00002.693690,00003.120443,00002.533302,00002.554359,-00000.423956,-00000.099063,-00000.567566,-00000.026940,-00000.073016,-00000.087828
0000000001012,00002.477996,00001.824579,00001.935972,00003.468300,00002.707139,00002.824159,00002.693762,00003.120716,00002.533643,00002.554640,-00000.424767,-00000.098924,-00000.567478,-00000.026774,-00000.074556,-00000.087855
0000000001013,00002.478427,00001.824987,00001.936006,00003.467622,00002.707193,00002.824233,00002.693662,00003.120808,00002.533542,00002.555096,-00000.425491,-00000.098844,-00000.567337,-00000.026562,-00000.075219,-00000.088192
0000000001014,00002.478841,00001.825359,00001.936150,00003.467004,00002.706925,00002.824321,00002.693360,00003.121041,00002.533469,00002.555335,-00000.426181,-00000.098726,-00000.566900,-00000.026420,-00000.075079,-00000.088577
0000000001015,00002.478846,00001.825706,00001.935817,00003.466790,00002.706608,00002.824021,00002.692912,00003.120756,00002.533383,00002.554634,-00000.426798,-00000.098657,-00000.566779,-00000.025877,-00000.074555,-00000.089226
0000000001016,00002.479198,00001.826386,00001.935577,00003.466627,00002.706380,00002.824096,00002.692655,00003.120591,00002.533684,00002.554475,-00000.427385,-00000.098557,-00000.566407,-00000.025394,-00000.073710,-00000.089555
0000000001017,00002.479565,00001.827044,00001.935656,00003.466444,00002.706472,00002.824203,00002.692637,00003.120349,00002.533974,00002.554242,-00000.427910,-00000.098499,-00000.565579,-00000.024569,-00000.072901,-00000.089745
0000000001018,00002.479502,00001.827260,00001.935451,00003.466305,00002.706278,00002.824267,00002.692418,00003.120209,00002.534230,00002.554106,-00000.428410,-00000.098413,-00000.565262,-00000.023795,-00000.072182,-00000.090387
0000000001019,00002.479451,00001.827457,00001.935156,00003.465787,00002.705995,00002.823996,00002.692039,00003.119640,00002.534114,00002.553907,-00000.428857,-00000.098001,-00000.564557,-00000.022729,-00000.071494,-00000.091274
0000000001020,00002.479398,00001.827641,00001.934982,00003.465669,00002.706192,00002.823687,00002.691854,00003.119158,00002.534332,00002.553792,-00000.429283,-00000.097928,-00000.563924,-00000.022070,-00000.070155,-00000.091821
0000000001021,00002.479717,00001.827809,00001.935093,00003.465591,00002.706313,00002.824182,00002.691894,00003.119399,00002.534596,00002.553986,-00000.430026,-00000.097940,-00000.563324,-00000.021526,-00000.068844,-00000.091851
0000000001022,00002.480034,00001.827603,00001.935670,00003.465127,00002.706482,00002.824282,00002.691736,00003.119714,00002.534419,00002.554250,-00000.430751,-00000.097515,-00000.562785,-00000.020965,-00000.067705,-00000.091953
0000000001023,00002.479944,00001.827746,00001.935765,00003.465061,00002.706222,00002.824340,00002.691770,00003.119556,00002.534643,00002.554052,-00000.431384,-00000.097162,-00000.562275,-00000.020502,-00000.066588,-00000.091979
0000000001024,00002.479851,00001.827933,00001.935531,00003.464303,00002.706365,00002.824063,00002.691998,00003.119462,00002.534855,00002.554277,-00000.431639,-00000.096801,-00000.561453,-00000.019662,-00000.065981,-00000.092066
0000000001025,00002.480136,00001.828055,00001.935249,00003.463884,00002.706144,00002.824112,00002.691302,00003.119328,00002.534684,00002.554109,-00000.431814,-00000.096500,-00000.560656,-00000.018905,-00000.065756,-00000.092450
0000000001026,00002.480058,00001.828214,00001.935412,00003.463965,00002.705903,00002.824239,00002.691496,00003.118884,00002.534864,00002.553938,-00000.432031,-00000.096193,-00000.559956,-00000.018189,-00000.065240,-00000.092525
0000000001027,00002.479938,00001.828318,00001.935172,00003.463970,00002.705715,00002.824281,00002.691266,00003.118407,00002.535081,00002.553794,-00000.432181,-00000.095937,-00000.559640,-00000.017545,-00000.063597,-00000.091763
0000000001028,00002.480233,00001.828090,00001.935674,00003.463676,00002.705873,00002.824389,00002.691068,00003.118756,00002.534872,00002.554011,-00000.432365,-00000.095675,-00000.559408,-00000.016936,-00000.061343,-00000.091101
0000000001029,00002.480132,00001.827816,00001.935832,00003.462955,00002.705713,00002.824062,00002.690510,00003.118712,00002.534331,00002.553889,-00000.432492,-00000.095820,-00000.559138,-00000.016387,-00000.058131,-00000.090816
0000000001030,00002.480383,00001.827623,00001.935897,00003.463068,00002.705484,00002.824154,00002.690341,00003.119009,00002.534153,00002.554074,-00000.432650,-00000.095960,-00000.558578,-00000.015506,-00000.055124,-00000.090615
0000000001031,00002.480296,00001.827389,00001.936032,00003.462454,00002.705711,00002.823875,00002.689866,00003.118972,00002.534055,00002.553970,-00000.432395,-00000.095721,-00000.557986,-00000.014676,-00000.053840,-00000.090735
0000000001032,00002.480511,00001.827224,00001.936087,00003.462187,00002.705516,00002.823953,00002.689360,00003.118862,00002.533903,00002.553765,-00000.432166,-00000.095477,-00000.557508,-00000.013926,-00000.053457,-00000.090927
0000000001033,00002.480800,00001.827025,00001.936201,00003.462391,00002.705346,00002.824079,00002.689318,00003.119193,00002.533820,00002.553676,-00000.431950,-00000.095273,-00000.557004,-00000.013582,-00000.053090,-00000.091029
0000000001034,00002.480256,00001.827248,00001.935886,00003.462163,00002.705180,00002.823783,00002.689250,00003.118736,00002.534054,00002.553501,-00000.431755,-00000.095065,-00000.556598,-00000.012943,-00000.052038,-00000.091192
0000000001035,00002.479777,00001.827441,00001.935620,00003.461974,00002.705036,00002.823527,00002.689214,00003.118293,00002.533983,00002.553063,-00000.431570,-00000.094892,-00000.556532,-00000.012288,-00000.050275,-00000.090916
0000000001036,00002.479314,00001.827268,00001.935351,00003.462143,00002.704895,00002.823275,00002.689519,00003.118267,00002.533819,00002.552914,-00000.431767,-00000.095078,-00000.556549,-00000.012107,-00000.048654,-00000.090330
0000000001037,00002.479269,00001.827070,00001.935488,00003.461981,00002.705134,00002.823420,00002.689489,00003.118252,00002.533396,00002.552904,-00000.431973,-00000.095293,-00000.556492,-00000.011912,-00000.047515,-00000.089732
0000000001038,00002.479238,00001.826922,00001.935259,00003.461400,00002.705014,00002.823206,00002.689385,00003.118230,00002.532894,00002.552778,-00000.432140,-00000.095452,-00000.556507,-00000.011758,-00000.046861,-00000.089233
0000000001039,00002.479199,00001.827117,00001.935376,00003.461262,00002.705218,00002.823329,00002.689722,00003.118580,00002.533259,00002.553132,-00000.432316,-00000.095635,-00000.556459,-00000.011592,-00000.046617,-00000.088724
0000000001040,00002.479536,00001.826991,00001.935544,00003.461130,00002.704753,00002.823872,00002.689634,00003.118561,00002.533194,00002.553024,-00000.432458,-00000.095770,-00000.556471,-00000.011461,-00000.046786,-00000.088661
0000000001041,00002.479503,00001.827156,00001.935281,00003.461013,00002.704927,00002.823977,00002.689921,00003.118497,00002.533505,00002.552962,-00000.432607,-00000.095926,-00000.556430,-00000.011319,-00000.046578,-00000.088591
0000000001042,00002.479426,00001.827412,00001.935423,00003.460901,00002.705257,00002.824076,00002.690209,00003.118481,00002.533450,00002.552871,-00000.432729,-00000.096403,-00000.556441,-00000.011208,-00000.045996,-00000.088175
0000000001043,00002.479398,00001.827553,00001.935199,00003.460438,00002.705404,00002.824166,00002.690453,00003.118426,00002.532989,00002.553181,-00000.433219,-00000.096536,-00000.556406,-00000.011450,-00000.045457,-00000.087753
0000000001044,00002.479333,00001.827771,00001.934958,00003.459979,00002.705685,00002.824251,00002.690699,00003.118412,00002.532942,00002.553103,-00000.433685,-00000.096580,-00000.556415,-00000.011718,-00000.044961,-00000.087399
0000000001045,00002.479672,00001.827528,00001.935130,00003.459949,00002.705811,00002.824327,00002.690906,00003.118728,00002.532550,00002.553367,-00000.434102,-00000.096693,-00000.556385,-00000.011924,-00000.044865,-00000.087039
0000000001046,00002.479617,00001.827350,00001.935287,00003.459558,00002.706050,00002.824036,00002.691115,00003.118716,00002.531785,00002.553301,-00000.434861,-00000.096730,-00000.556393,-00000.012152,-00000.045169,-00000.086737
0000000001047,00002.479180,00001.827506,00001.935071,00003.458806,00002.705794,00002.823375,00002.691292,00003.118623,00002.531088,00002.553163,-00000.435579,-00000.096826,-00000.556730,-00000.012328,-00000.045449,-00000.086431
0000000001048,00002.479133,00001.827355,00001.934842,00003.458111,00002.705998,00002.823128,00002.691107,00003.118613,00002.530436,00002.553469,-00000.436226,-00000.096858,-00000.557099,-00000.012522,-00000.045345,-00000.085812
0000000001049,00002.478761,00001.827125,00001.934658,00003.457471,00002.705417,00002.822928,00002.690532,00003.118170,00002.529843,00002.552989,-00000.436837,-00000.097303,-00000.557387,-00000.012309,-00000.044858,-00000.085188
0000000001050,00002.478358,00001.826634,00001.934463,00003.456516,00002.705228,00002.822717,00002.690374,00003.118162,00002.529288,00002.552887,-00000.437387,-00000.097693,-00000.557701,-00000.012474,-00000.044770,-00000.084661
0000000001051,00002.478041,00001.826438,00001.933943,00003.456334,00002.705096,00002.822547,00002.690248,00003.117785,00002.529146,00002.552478,-00000.438270,-00000.097708,-00000.557583,-00000.012655,-00000.044718,-00000.084130
0000000001052,00002.478061,00001.826020,00001.933778,00003.455885,00002.704935,00002.822368,00002.689751,00003.117778,00002.528674,00002.552391,-00000.438739,-00000.098040,-00000.557851,-00000.012796,-00000.045006,-00000.083681
0000000001053,00002.478154,00001.825853,00001.933698,00003.455367,00002.704460,00002.822223,00002.689280,00003.117820,00002.528190,00002.552406,-00000.439128,-00000.098054,-00000.557750,-00000.012587,-00000.044962,-00000.083229
0000000001054,00002.478171,00001.825860,00001.933557,00003.454984,00002.704323,00002.822070,00002.688857,00003.117813,00002.527788,00002.552332,-00000.439527,-00000.097973,-00000.557615,-00000.012344,-00000.044843,-00000.082847
0000000001055,00002.478250,00001.825355,00001.933489,00003.454543,00002.703919,00002.822310,00002.688456,00003.117849,00002.527376,00002.551982,-00000.439858,-00000.097985,-00000.557529,-00000.012167,-00000.044806,-00000.082825
0000000001056,00002.477902,00001.825361,00001.933006,00003.454217,00002.703439,00002.822180,00002.688459,00003.117481,00002.527034,00002.551556,-00000.440198,-00000.097916,-00000.557414,-00000.011960,-00000.044706,-00000.082863
0000000001057,00002.477969,00001.825294,00001.932949,00003.454204,00002.703095,00002.822021,00002.688481,00003.117149,00002.527046,00002.551258,-00000.440479,-00000.097926,-00000.557342,-00000.011446,-00000.044674,-00000.083207
0000000001058,00002.477673,00001.825299,00001.932900,00003.453564,00002.703050,00002.821548,00002.688483,00003.116836,00002.527117,00002.550896,-00000.440768,-00000.097868,-00000.556881,-00000.011270,-00000.044588,-00000.083602
0000000001059,00002.477367,00001.825242,00001.932488,00003.453191,00002.703120,00002.821413,00002.688502,00003.116553,00002.527128,00002.550642,-00000.441008,-00000.097876,-00000.556819,-00000.011195,-00000.044561,-00000.083532
0000000001060,00002.477115,00001.825246,00001.932084,00003.453371,00002.703081,00002.821372,00002.688504,00003.116286,00002.527189,00002.550333,-00000.441255,-00000.097827,-00000.557152,-00000.011045,-00000.044488,-00000.083142
0000000001061,00002.477580,00001.825198,00001.932097,00003.453053,00002.702777,00002.821620,00002.688156,00003.116408,00002.526835,00002.550117,-00000.441459,-00000.098197,-00000.557462,-00000.011344,-00000.044465,-00000.082357
0000000001062,00002.477365,00001.825201,00001.931753,00003.453207,00002.702744,00002.821586,00002.688158,00003.116181,00002.526886,00002.549855,-00000.441668,-00000.098517,-00000.557383,-00000.011217,-00000.044040,-00000.082026
0000000001063,00002.477399,00001.825160,00001.932126,00003.452936,00002.702849,00002.821434,00002.688225,00003.116285,00002.526585,00002.550034,-00000.441842,-00000.098469,-00000.557284,-00000.011109,-00000.043295,-00000.082083
0000000001064,00002.477579,00001.825163,00001.932559,00003.452704,00002.702821,00002.821405,00002.688227,00003.116454,00002.526266,00002.550173,-00000.442021,-00000.098379,-00000.557217,-00000.011000,-00000.042208,-00000.082163
0000000001065,00002.477607,00001.825128,00001.932514,00003.452474,00002.702547,00002.821275,00002.688284,00003.116543,00002.526010,00002.550325,-00000.442169,-00000.098701,-00000.557496,-00000.010908,-00000.041211,-00000.082212
0000000001066,00002.477761,00001.825130,00001.932519,00003.452276,00002.702886,00002.821250,00002.688285,00003.116687,00002.526101,00002.550081,-00000.442683,-00000.098988,-00000.557801,-00000.011178,-00000.040285,-00000.081918
0000000001067,00002.477422,00001.825100,00001.932118,00003.452080,00002.703016,00002.820777,00002.688334,00003.116399,00002.526246,00002.549848,-00000.443535,-00000.099262,-00000.558039,-00000.011463,-00000.039436,-00000.081234
0000000001068,00002.477552,00001.825103,00001.932123,00003.451912,00002.702579,00002.820756,00002.687972,00003.116522,00002.525961,00002.549640,-00000.444698,-00000.099506,-00000.558299,-00000.011693,-00000.038648,-00000.080983
0000000001069,00002.477990,00001.825077,00001.932144,00003.452108,00002.702689,00002.820717,00002.687651,00003.117003,00002.525721,00002.549441,-00000.446875,-00000.099739,-00000.558501,-00000.011935,-00000.038651,-00000.081126
0000000001070,00002.478101,00001.825079,00001.932148,00003.451965,00002.702317,00002.820336,00002.687343,00003.116745,00002.525478,00002.548901,-00000.450405,-00000.099946,-00000.558722,-00000.012856,-00000.039069,-00000.080913
0000000001071,00002.477748,00001.824694,00001.932166,00003.451406,00002.702411,00002.819576,00002.687070,00003.116791,00002.525274,00002.548369,-00000.454797,-00000.100145,-00000.558894,-00000.013788,-00000.039797,-00000.080310
0000000001072,00002.477842,00001.824333,00001.932170,00003.450196,00002.702094,00002.818889,00002.686807,00003.116934,00002.525068,00002.547547,-00000.462519,-00000.099596,-00000.558720,-00000.014935,-00000.040152,-00000.079402
0000000001073,00002.477541,00001.823643,00001.931822,00003.448632,00002.701812,00002.817880,00002.686212,00003.116974,00002.524531,00002.546369,-00000.472062,-00000.099040,-00000.558140,-00000.016091,-00000.040772,-00000.078163
0000000001074,00002.476896,00001.822973,00001.930374,00003.447239,00002.701179,00002.815481,00002.685626,00003.116370,00002.523992,00002.544218,-00000.483352,-00000.098572,-00000.557992,-00000.017794,-00000.040349,-00000.077028
0000000001075,00002.476278,00001.822023,00001.929353,00003.445544,00002.700938,00002.813534,00002.685119,00003.116041,00002.522810,00002.541763,-00000.497644,-00000.098099,-00000.557862,-00000.020229,-00000.040151,-00000.075610
0000000001076,00002.475003,00001.820726,00001.928120,00003.443633,00002.700400,00002.811129,00002.683894,00003.115527,00002.521263,00002.539206,-00000.514873,-00000.097701,-00000.557373,-00000.022404,-00000.040879,-00000.074281
0000000001077,00002.473025,00001.819555,00001.926162,00003.441465,00002.699470,00002.808020,00002.683100,00003.114521,00002.519531,00002.536029,-00000.535384,-00000.096935,-00000.556173,-00000.024477,-00000.041799,-00000.073437
0000000001078,00002.471214,00001.818088,00001.924024,00003.439112,00002.697923,00002.804884,00002.681695,00003.114083,00002.517488,00002.532401,-00000.559122,-00000.096959,-00000.555394,-00000.026328,-00000.041694,-00000.073756
0000000001079,00002.469167,00001.815640,00001.921632,00003.436541,00002.695680,00002.801874,00002.680293,00003.113227,00002.515288,00002.528607,-00000.583476,-00000.097395,-00000.554736,-00000.027730,-00000.041751,-00000.073763
0000000001080,00002.466537,00001.813666,00001.919086,00003.433812,00002.693637,00002.798479,00002.679097,00003.112492,00002.512824,00002.525156,-00000.608037,-00000.098141,-00000.554435,-00000.029669,-00000.042387,-00000.074035
0000000001081,00002.464432,00001.811219,00001.917050,00003.430898,00002.692090,00002.795554,00002.678266,00003.112489,00002.509863,00002.522289,-00000.634937,-00000.098875,-00000.554601,-00000.031951,-00000.042799,-00000.074767
0000000001082,00002.462556,00001.808450,00001.914883,00003.427849,00002.689989,00002.793027,00002.676885,00003.112225,00002.506314,00002.519351,-00000.664190,-00000.099873,-00000.553982,-00000.033601,-00000.042977,-00000.076450
0000000001083,00002.460764,00001.806004,00001.912424,00003.424280,00002.687584,00002.790174,00002.675089,00003.111497,00002.503067,00002.515823,-00000.695072,-00000.100498,-00000.553034,-00000.034456,-00000.042965,-00000.079975
0000000001084,00002.458804,00001.804009,00001.910216,00003.419871,00002.686157,00002.787297,00002.674277,00003.110910,00002.499683,00002.512959,-00000.726868,-00000.100985,-00000.552508,-00000.035498,-00000.042391,-00000.085398
0000000001085,00002.457642,00001.802290,00001.908485,00003.415381,00002.684473,00002.784869,00002.673111,00003.110653,00002.496556,00002.509955,-00000.759688,-00000.101880,-00000.552427,-00000.036951,-00000.041655,-00000.092389
0000000001086,00002.456336,00001.800592,00001.906606,00003.410902,00002.682896,00002.782782,00002.672056,00003.110153,00002.493675,00002.506791,-00000.793649,-00000.102657,-00000.551978,-00000.037838,-00000.041529,-00000.099909
0000000001087,00002.454983,00001.799128,00001.904770,00003.405991,00002.681461,00002.780352,00002.671064,00003.109571,00002.490651,00002.503871,-00000.827756,-00000.103419,-00000.551184,-00000.038712,-00000.040903,-00000.106223
0000000001088,00002.453872,00001.798046,00001.903170,00003.401816,00002.680119,00002.778213,00002.670166,00003.109146,00002.488198,00002.500815,-00000.862835,-00000.104080,-00000.550439,-00000.039467,-00000.040070,-00000.110811
0000000001089,00002.452720,00001.796799,00001.901607,00003.396547,00002.678535,00002.775781,00002.668958,00003.108651,00002.485624,00002.497966,-00000.899488,-00000.104729,-00000.549400,-00000.039486,-00000.038811,-00000.114372
0000000001090,00002.452500,00001.796241,00001.900607,00003.390815,00002.677755,00002.773960,00002.668193,00003.108652,00002.483536,00002.495002,-00000.937695,-00000.106018,-00000.548403,-00000.039040,-00000.037014,-00000.116826
0000000001091,00002.451882,00001.796268,00001.899277,00003.385242,00002.676407,00002.772253,00002.667528,00003.108230,00002.481707,00002.491851,-00000.977606,-00000.107295,-00000.547881,-00000.038693,-00000.034854,-00000.119133
0000000001092,00002.451694,00001.796155,00001.898063,00003.378911,00002.675017,00002.770703,00002.666877,00003.108230,00002.479566,00002.488602,-00001.018838,-00000.109118,-00000.547759,-00000.037951,-00000.032599,-00000.121585
0000000001093,00002.451531,00001.796179,00001.896930,00003.372715,00002.674232,00002.768887,00002.666311,00003.108234,00002.477284,00002.485194,-00001.060795,-00000.110931,-00000.547314,-00000.036568,-00000.030397,-00000.124999
0000000001094,00002.450646,00001.796083,00001.895535,00003.367326,00002.673049,00002.766841,00002.665757,00003.107872,00002.475462,00002.480977,-00001.104241,-00000.112846,-00000.546847,-00000.035210,-00000.029565,-00000.129263
0000000001095,00002.450144,00001.795377,00001.894570,00003.360963,00002.672381,00002.764207,00002.665275,00003.107875,00002.473519,00002.475899,-00001.149029,-00000.115115,-00000.546106,-00000.033670,-00000.029142,-00000.133984
0000000001096,00002.449391,00001.794207,00001.893382,00003.354561,00002.672100,00002.761377,00002.665166,00003.107567,00002.471605,00002.470132,-00001.194358,-00000.117108,-00000.545708,-00000.032151,-00000.029522,-00000.138340
0000000001097,00002.448964,00001.793243,00001.892198,00003.348419,00002.671531,00002.758772,00002.664756,00003.107570,00002.469225,00002.463633,-00001.238291,-00000.119402,-00000.545440,-00000.030840,-00000.029162,-00000.141633
0000000001098,00002.448322,00001.792247,00001.890824,00003.342606,00002.670928,00002.755275,00002.664300,00003.107307,00002.467233,00002.456547,-00001.280145,-00000.121461,-00000.545101,-00000.029547,-00000.028035,-00000.144252
0000000001099,00002.447959,00001.791427,00001.889453,00003.337377,00002.670081,00002.752694,00002.663588,00003.106947,00002.465207,00002.449200,-00001.319721,-00000.123415,-00000.544510,-00000.028431,-00000.026640,-00000.146330
0000000001100,00002.447412,00001.790942,00001.888283,00003.332066,00002.669568,00002.750442,00002.663563,00003.106723,00002.463511,00002.441716,-00001.358254,-00000.125168,-00000.543859,-00000.026968,-00000.024954,-00000.148198
0000000001101,00002.447103,00001.790243,00001.886754,00003.327977,00002.668847,00002.748245,00002.663320,00003.106416,00002.461786,00002.433285,-00001.395936,-00000.126468,-00000.542993,-00000.025654,-00000.023767,-00000.149604
0000000001102,00002.446638,00001.789468,00001.883581,00003.323819,00002.668048,00002.745966,00002.662936,00003.106226,00002.459980,00002.424012,-00001.432004,-00000.127597,-00000.542076,-00000.024771,-00000.023420,-00000.150831
0000000001103,00002.446374,00001.788510,00001.880828,00003.319975,00002.667434,00002.743733,00002.662728,00003.105965,00002.458149,00002.415383,-00001.465897,-00000.128704,-00000.541702,-00000.024016,-00000.023861,-00000.152028
0000000001104,00002.446341,00001.787487,00001.878127,00003.316072,00002.666754,00002.741429,00002.662401,00003.105803,00002.456248,00002.407126,-00001.495876,-00000.129665,-00000.541284,-00000.023265,-00000.024291,-00000.152346
0000000001105,00002.446117,00001.787035,00001.875783,00003.312800,00002.666594,00002.739528,00002.662225,00003.105581,00002.455052,00002.399418,-00001.522190,-00000.130608,-00000.541328,-00000.022259,-00000.023940,-00000.151914
0000000001106,00002.446089,00001.786527,00001.873846,00003.309840,00002.666377,00002.738293,00002.661947,00003.105806,00002.453434,00002.392389,-00001.543720,-00000.131789,-00000.542061,-00000.021256,-00000.022493,-00000.150734
0000000001107,00002.445898,00001.786142,00001.871488,00003.307055,00002.665516,00002.736674,00002.661796,00003.105616,00002.452053,00002.385101,-00001.563219,-00000.132954,-00000.542824,-00000.020400,-00000.020380,-00000.149278
0000000001108,00002.446237,00001.785709,00001.870203,00003.304535,00002.664968,00002.735623,00002.661197,00003.105808,00002.451039,00002.378392,-00001.580459,-00000.133960,-00000.543447,-00000.019547,-00000.018423,-00000.148274
0000000001109,00002.445712,00001.785381,00001.868195,00003.302164,00002.664598,00002.734608,00002.660706,00003.105647,00002.450589,00002.371825,-00001.596695,-00000.134588,-00000.543734,-00000.018455,-00000.016987,-00000.147397
0000000001110,00002.445274,00001.785013,00001.866738,00003.299656,00002.664132,00002.733350,00002.660558,00003.105447,00002.450088,00002.365387,-00001.612098,-00000.135082,-00000.543540,-00000.017366,-00000.016046,-00000.146542
0000000001111,00002.445190,00001.785097,00001.865392,00003.297275,00002.664179,00002.732123,00002.660503,00003.105672,00002.449342,00002.359434,-00001.626645,-00000.135617,-00000.543058,-00000.016436,-00000.015549,-00000.145433
0000000001112,00002.445543,00001.785146,00001.864514,00003.295503,00002.664146,00002.730689,00002.660015,00003.105865,00002.448553,00002.354317,-00001.639394,-00000.136037,-00000.542893,-00000.015872,-00000.015837,-00000.143616
0000000001113,00002.445834,00001.785580,00001.863368,00003.293838,00002.663823,00002.730008,00002.659968,00003.105694,00002.448281,00002.349249,-00001.648513,-00000.136856,-00000.543208,-00000.015806,-00000.016140,-00000.141584
0000000001114,00002.445772,00001.785985,00001.863346,00003.292330,00002.663794,00002.729150,00002.660278,00003.105496,00002.448334,00002.344893,-00001.655013,-00000.137576,-00000.543793,-00000.015326,-00000.015659,-00000.139675
0000000001115,00002.448610,00001.787014,00001.861467,00003.287025,00002.662899,00002.726983,00002.659742,00003.105420,00002.446863,00002.334540,-00001.666025,-00000.139479,-00000.544425,-00000.011401,-00000.011334,-00000.137949
0000000001116,00002.449854,00001.787670,00001.861560,00003.284897,00002.662623,00002.726724,00002.659349,00003.105276,00002.446284,00002.331746,-00001.666289,-00000.140001,-00000.544903,-00000.010489,-00000.011147,-00000.136767
0000000001117,00002.450894,00001.789947,00001.861919,00003.278222,00002.662861,00002.725411,00002.659348,00003.104994,00002.445677,00002.326766,-00001.666663,-00000.140951,-00000.545867,-00000.008929,-00000.010941,-00000.134569
0000000001118,00002.451911,00001.790739,00001.862159,00003.275317,00002.662954,00002.724791,00002.659323,00003.105221,00002.445218,00002.324915,-00001.667514,-00000.141381,-00000.545979,-00000.007900,-00000.010900,-00000.133555
0000000001119,00002.452504,00001.791886,00001.862226,00003.273265,00002.663063,00002.724657,00002.659710,00003.105117,00002.445524,00002.322527,-00001.668794,-00000.141396,-00000.545599,-00000.006876,-00000.011128,-00000.132698
0000000001120,00002.453007,00001.792923,00001.861704,00003.271155,00002.663143,00002.724128,00002.660052,00003.104948,00002.445495,00002.320588,-00001.669882,-00000.141399,-00000.545332,-00000.005999,-00000.011819,-00000.131473
0000000001121,00002.453512,00001.793899,00001.860673,00003.269045,00002.662873,00002.724015,00002.660018,00003.104859,00002.445393,00002.318555,-00001.670246,-00000.141775,-00000.545009,-00000.005853,-00000.013101,-00000.130017
0000000001122,00002.453940,00001.794782,00001.861317,00003.267249,00002.662941,00002.724290,00002.660309,00003.105077,00002.445368,00002.316542,-00001.668996,-00000.142141,-00000.545144,-00000.005470,-00000.014415,-00000.128611
0000000001123,00002.454370,00001.795976,00001.861527,00003.265453,00002.663436,00002.723831,00002.660644,00003.105002,00002.445282,00002.315174,-00001.667491,-00000.142098,-00000.545232,-00000.004983,-00000.015144,-00000.127010
0000000001124,00002.454735,00001.797090,00001.860987,00003.263923,00002.663494,00002.723340,00002.660891,00003.104825,00002.445261,00002.313461,-00001.666064,-00000.142409,-00000.544984,-00000.004657,-00000.015537,-00000.125449
0000000001125,00002.455463,00001.797744,00001.861892,00003.262032,00002.663553,00002.722948,00002.660813,00003.104761,00002.445187,00002.311933,-00001.664783,-00000.142736,-00000.545059,-00000.004242,-00000.015794,-00000.123723
0000000001126,00002.455774,00001.798693,00001.861432,00003.260367,00002.663602,00002.722530,00002.660661,00003.104610,00002.445169,00002.310112,-00001.663931,-00000.142638,-00000.545210,-00000.004327,-00000.016129,-00000.121307
0000000001127,00002.456394,00001.799612,00001.860751,00003.259482,00002.663653,00002.722560,00002.660594,00003.104918,00002.445106,00002.308449,-00001.663204,-00000.142916,-00000.545274,-00000.004337,-00000.016711,-00000.118749
0000000001128,00002.456658,00001.800057,00001.860360,00003.258428,00002.663695,00002.722204,00002.660465,00003.104790,00002.445091,00002.306898,-00001.663204,-00000.142832,-00000.545403,-00000.004409,-00000.017721,-00000.115966
0000000001129,00002.457549,00001.800476,00001.860143,00003.257312,00002.663738,00002.722230,00002.660771,00003.105052,00002.445037,00002.305482,-00001.664399,-00000.142706,-00000.545457,-00000.004418,-00000.018579,-00000.113426
0000000001130,00002.458137,00001.800855,00001.860898,00003.256052,00002.664136,00002.721927,00002.661024,00003.104943,00002.445024,00002.304162,-00001.666213,-00000.142635,-00000.545205,-00000.004479,-00000.019439,-00000.111057
0000000001131,00002.458895,00001.801212,00001.860714,00003.255102,00002.664173,00002.721948,00002.660922,00003.105166,00002.444979,00002.302957,-00001.669044,-00000.142528,-00000.544888,-00000.004486,-00000.020170,-00000.109257
0000000001132,00002.459396,00001.801535,00001.860631,00003.254029,00002.664149,00002.722053,00002.660774,00003.105436,00002.444968,00002.301470,-00001.672402,-00000.142467,-00000.544673,-00000.004539,-00000.021265,-00000.107966
0000000001133,00002.459678,00001.801839,00001.860837,00003.253220,00002.663817,00002.722071,00002.660687,00003.105264,00002.444929,00002.299719,-00001.676626,-00000.142376,-00000.544040,-00000.004545,-00000.022250,-00000.107160
0000000001134,00002.459742,00001.802476,00001.861129,00003.252669,00002.663797,00002.722161,00002.660924,00003.105493,00002.445283,00002.298453,-00001.680573,-00000.142324,-00000.543494,-00000.004589,-00000.023182,-00000.106423
0000000001135,00002.459982,00001.803098,00001.860578,00003.251981,00002.663878,00002.721814,00002.660850,00003.105346,00002.445249,00002.296962,-00001.683806,-00000.142247,-00000.543319,-00000.004595,-00000.024020,-00000.105737
0000000001136,00002.460399,00001.803277,00001.861190,00003.251149,00002.663860,00002.721527,00002.660326,00003.105542,00002.444825,00002.295884,-00001.687166,-00000.142566,-00000.543217,-00000.004632,-00000.024088,-00000.105110
0000000001137,00002.460604,00001.803444,00001.861810,00003.250200,00002.663929,00002.721231,00002.660263,00003.105780,00002.444797,00002.294615,-00001.691007,-00000.142499,-00000.542704,-00000.004637,-00000.024439,-00000.104888
0000000001138,00002.460958,00001.803960,00001.861968,00003.249855,00002.663914,00002.721350,00002.660543,00003.105946,00002.444798,00002.293335,-00001.694231,-00000.142408,-00000.542618,-00000.004669,-00000.025223,-00000.104717
0000000001139,00002.461133,00001.804101,00001.862133,00003.249047,00002.663610,00002.721461,00002.660489,00003.106148,00002.444774,00002.292254,-00001.697500,-00000.142714,-00000.542544,-00000.004673,-00000.025884,-00000.104529
0000000001140,00002.461435,00001.804178,00001.861904,00003.248391,00002.663960,00002.721199,00002.660364,00003.106290,00002.444412,00002.291527,-00001.700970,-00000.142637,-00000.542470,-00000.004701,-00000.026551,-00000.104383
0000000001141,00002.461946,00001.804298,00001.861682,00003.247703,00002.664426,00002.721294,00002.660319,00003.106825,00002.444392,00002.290608,-00001.703391,-00000.142898,-00000.542771,-00000.004704,-00000.027114,-00000.103860
0000000001142,00002.462203,00001.804363,00001.861487,00003.247507,00002.664362,00002.721434,00002.660213,00003.106946,00002.444084,00002.289626,-00001.704893,-00000.143194,-00000.543071,-00000.004727,-00000.026957,-00000.103373
0000000001143,00002.462276,00001.804829,00001.860935,00003.247284,00002.664396,00002.721515,00002.660174,00003.107039,00002.444066,00002.288480,-00001.704777,-00000.143416,-00000.544052,-00000.004730,-00000.026348,-00000.103290
0000000001144,00002.462494,00001.804884,00001.860044,00003.246754,00002.663978,00002.721634,00002.660083,00003.106779,00002.444167,00002.287282,-00001.704605,-00000.144032,-00000.545033,-00000.004750,-00000.025488,-00000.103239
0000000001145,00002.462556,00001.804918,00001.859211,00003.246565,00002.664008,00002.721340,00002.660050,00003.106857,00002.444152,00002.286306,-00001.704869,-00000.144583,-00000.545868,-00000.004752,-00000.024606,-00000.103168
0000000001146,00002.462742,00001.804602,00001.858815,00003.245751,00002.664015,00002.720353,00002.659610,00003.106999,00002.443875,00002.285649,-00001.705448,-00000.144744,-00000.546341,-00000.004769,-00000.023874,-00000.102762
0000000001147,00002.462432,00001.804630,00001.858469,00003.244864,00002.664402,00002.719014,00002.659945,00003.107066,00002.443863,00002.284818,-00001.706761,-00000.144851,-00000.546689,-00000.004408,-00000.023124,-00000.102339
0000000001148,00002.462228,00001.804724,00001.858495,00003.243809,00002.664409,00002.717811,00002.659934,00003.106824,00002.443627,00002.283896,-00001.707617,-00000.144989,-00000.547091,-00000.004423,-00000.022501,-00000.102356
0000000001149,00002.461964,00001.805111,00001.858926,00003.243416,00002.664376,00002.716671,00002.660218,00003.106881,00002.443616,00002.283189,-00001.706921,-00000.145080,-00000.547387,-00000.004478,-00000.021862,-00000.102358
0000000001150,00002.462153,00001.805191,00001.858948,00003.243243,00002.664381,00002.715647,00002.660571,00003.106674,00002.443778,00002.282404,-00001.705473,-00000.145559,-00000.548092,-00000.004491,-00000.020969,-00000.102010
0000000001151,00002.461928,00001.805158,00001.858952,00003.242184,00002.664353,00002.714677,00002.660451,00003.106723,00002.443406,00002.281802,-00001.703429,-00000.145999,-00000.548708,-00000.004538,-00000.020063,-00000.101649
0000000001152,00002.462089,00001.805226,00001.859333,00003.242037,00002.663995,00002.714168,00002.660389,00003.106910,00002.443181,00002.281496,-00001.702196,-00000.146408,-00000.548945,-00000.004548,-00000.019665,-00000.101353
0000000001153,00002.462260,00001.805198,00001.859699,00003.241497,00002.663971,00002.713342,00002.660286,00003.106951,00002.442865,00002.281346,-00001.701907,-00000.146420,-00000.549106,-00000.004226,-00000.019256,-00000.101409
0000000001154,00002.462397,00001.805256,00001.860024,00003.241372,00002.664029,00002.712545,00002.660233,00003.106748,00002.443036,00002.280723,-00001.701946,-00000.146404,-00000.549308,-00000.004235,-00000.019280,-00000.101156
0000000001155,00002.462543,00001.805232,00001.859973,00003.241276,00002.664008,00002.712205,00002.660146,00003.106783,00002.443129,00002.280233,-00001.701338,-00000.146415,-00000.549445,-00000.004323,-00000.019295,-00000.100841
0000000001156,00002.462660,00001.805281,00001.860250,00003.240806,00002.664057,00002.711527,00002.660464,00003.106973,00002.443275,00002.279703,-00001.699920,-00000.146402,-00000.549980,-00000.004694,-00000.019316,-00000.100263
0000000001157,00002.462421,00001.805261,00001.860206,00003.240362,00002.664040,00002.711238,00002.660389,00003.106277,00002.442992,00002.279286,-00001.698676,-00000.146773,-00000.550460,-00000.004769,-00000.018965,-00000.099632
0000000001158,00002.462157,00001.805665,00001.860079,00003.239962,00002.664082,00002.711023,00002.660660,00003.106076,00002.443116,00002.278834,-00001.697831,-00000.147125,-00000.550552,-00000.004358,-00000.018620,-00000.099140
0000000001159,00002.462317,00001.806011,00001.859679,00003.239946,00002.664067,00002.711140,00002.660959,00003.106209,00002.443237,00002.278842,-00001.697861,-00000.147078,-00000.550235,-00000.004060,-00000.018322,-00000.098966
0000000001160,00002.462093,00001.805993,00001.858845,00003.239969,00002.663740,00002.710957,00002.660827,00003.106038,00002.443343,00002.278457,-00001.698231,-00000.147015,-00000.549951,-00000.004073,-00000.018391,-00000.098547
0000000001161,00002.462229,00001.805924,00001.858505,00003.239592,00002.663728,00002.710693,00002.660719,00003.105789,00002.443446,00002.278101,-00001.698256,-00000.146975,-00000.549680,-00000.004182,-00000.018863,-00000.097673
0000000001162,00002.462400,00001.805908,00001.858157,00003.239611,00002.663812,00002.710538,00002.660969,00003.105643,00002.443536,00002.277774,-00001.697119,-00000.147284,-00000.550164,-00000.004556,-00000.018921,-00000.096954
0000000001163,00002.462516,00001.805850,00001.857868,00003.239654,00002.663801,00002.710676,00002.660877,00003.105793,00002.443262,00002.277833,-00001.696415,-00000.147613,-00000.550660,-00000.005011,-00000.018597,-00000.095847
0000000001164,00002.463025,00001.805836,00001.857572,00003.239308,00002.664236,00002.710907,00002.660727,00003.106032,00002.443338,00002.277555,-00001.696536,-00000.147513,-00000.550709,-00000.004967,-00000.018647,-00000.094871
0000000001165,00002.463124,00001.805787,00001.857325,00003.238981,00002.664227,00002.710662,00002.660649,00003.106160,00002.443104,00002.277242,-00001.697388,-00000.147431,-00000.550405,-00000.004991,-00000.018734,-00000.093929
0000000001166,00002.462831,00001.805775,00001.856711,00003.239049,00002.664234,00002.710495,00002.660521,00003.106000,00002.443170,00002.276643,-00001.698579,-00000.146983,-00000.550084,-00000.004954,-00000.019140,-00000.093099
0000000001167,00002.462915,00001.805733,00001.856501,00003.239134,00002.664226,00002.710649,00002.660455,00003.106110,00002.443333,00002.276014,-00001.699667,-00000.146913,-00000.549825,-00000.004975,-00000.019576,-00000.092660
0000000001168,00002.463029,00001.806086,00001.856341,00003.239191,00002.663869,00002.710508,00002.660346,00003.106336,00002.443389,00002.275503,-00001.700318,-00000.146894,-00000.549915,-00000.004943,-00000.019559,-00000.092316
0000000001169,00002.463463,00001.806050,00001.856162,00003.238901,00002.663863,00002.710276,00002.659927,00003.106429,00002.443165,00002.274968,-00001.700156,-00000.147197,-00000.550420,-00000.005323,-00000.019205,-00000.091942
0000000001170,00002.463561,00001.806351,00001.856025,00003.238950,00002.663922,00002.710518,00002.660197,00003.106622,00002.443213,00002.274533,-00001.699985,-00000.147544,-00000.550859,-00000.005659,-00000.018827,-00000.091649
0000000001171,00002.463205,00001.806683,00001.856599,00003.238702,00002.663554,00002.709958,00002.660203,00003.105976,00002.443023,00002.273715,-00001.700209,-00000.147439,-00000.550927,-00000.005620,-00000.018889,-00000.091331
0000000001172,00002.462924,00001.806939,00001.857208,00003.238019,00002.663604,00002.709801,00002.660433,00003.106140,00002.443063,00002.273345,-00001.700064,-00000.147372,-00000.550938,-00000.005543,-00000.018930,-00000.091081
0000000001173,00002.462984,00001.807221,00001.857696,00003.238171,00002.663653,00002.710050,00002.660438,00003.106316,00002.443264,00002.273011,-00001.699529,-00000.147283,-00000.550995,-00000.005510,-00000.018620,-00000.090810
0000000001174,00002.463108,00001.807439,00001.857852,00003.237952,00002.663333,00002.710643,00002.660271,00003.106455,00002.443298,00002.272333,-00001.699043,-00000.147588,-00000.551367,-00000.005444,-00000.017929,-00000.090598
0000000001175,00002.462797,00001.807680,00001.857542,00003.237356,00002.663375,00002.710492,00002.660275,00003.106242,00002.443106,00002.271686,-00001.698588,-00000.147875,-00000.551779,-00000.005416,-00000.016939,-00000.090005
0000000001176,00002.463265,00001.807866,00001.857675,00003.236806,00002.663103,00002.710996,00002.660133,00003.106361,00002.442772,00002.271109,-00001.698899,-00000.148135,-00000.552459,-00000.005723,-00000.015988,-00000.089461
0000000001177,00002.463362,00001.808070,00001.857774,00003.236661,00002.662775,00002.711593,00002.660137,00003.106542,00002.442609,00002.270558,-00001.699237,-00000.148379,-00000.553172,-00000.006425,-00000.015871,-00000.089681
0000000001178,00002.463761,00001.808228,00001.857887,00003.236556,00002.662906,00002.712022,00002.660016,00003.107006,00002.442325,00002.270430,-00001.699502,-00000.148600,-00000.553750,-00000.007049,-00000.016876,-00000.089944
0000000001179,00002.463844,00001.808765,00001.857609,00003.236796,00002.662991,00002.712530,00002.660381,00003.106797,00002.442549,00002.269961,-00001.700516,-00000.148445,-00000.554358,-00000.007646,-00000.017865,-00000.090132
0000000001180,00002.463821,00001.808900,00001.857705,00003.236344,00002.663102,00002.712533,00002.660278,00003.106467,00002.442307,00002.269489,-00001.701467,-00000.148634,-00000.554850,-00000.008177,-00000.017995,-00000.090356
0000000001181,00002.463529,00001.809357,00001.858193,00003.236185,00002.663174,00002.712603,00002.660227,00003.106289,00002.442135,00002.268727,-00001.701604,-00000.149228,-00000.555367,-00000.008686,-00000.018111,-00000.090515
0000000001182,00002.463509,00001.809834,00001.859001,00003.236163,00002.663632,00002.712968,00002.660502,00003.106371,00002.442292,00002.268325,-00001.702051,-00000.149751,-00000.556149,-00000.009138,-00000.017496,-00000.091069
0000000001183,00002.463623,00001.810587,00001.859416,00003.236028,00002.663693,00002.713390,00002.660821,00003.106582,00002.442508,00002.268039,-00001.702531,-00000.149893,-00000.556589,-00000.009208,-00000.017232,-00000.091567
0000000001184,00002.463606,00001.810993,00001.860104,00003.235646,00002.663719,00002.713701,00002.660330,00003.106652,00002.442279,00002.267697,-00001.702548,-00000.149976,-00000.556892,-00000.009593,-00000.017433,-00000.091676
0000000001185,00002.464066,00001.811270,00001.860821,00003.235169,00002.663771,00002.714060,00002.660239,00003.106832,00002.442100,00002.267454,-00001.702231,-00000.150097,-00000.557629,-00000.010016,-00000.017572,-00000.091738
0000000001186,00002.464051,00001.811616,00001.860680,00003.234481,00002.663794,00002.714325,00002.659820,00003.106891,00002.441905,00002.267525,-00001.701158,-00000.150531,-00000.558250,-00000.010706,-00000.017743,-00000.091467
0000000001187,00002.464080,00001.812578,00001.860565,00003.233711,00002.663839,00002.714268,00002.660105,00003.107044,00002.442116,00002.267318,-00001.699074,-00000.150997,-00000.559241,-00000.011066,-00000.017498,-00000.090431
0000000001188,00002.464431,00001.813598,00001.861171,00003.233489,00002.663858,00002.714856,00002.660112,00003.106732,00002.441949,00002.267016,-00001.696346,-00000.151365,-00000.560132,-00000.010928,-00000.016919,-00000.089475
0000000001189,00002.464455,00001.814417,00001.861798,00003.233196,00002.663896,00002.715171,00002.660355,00003.106499,00002.442129,00002.266477,-00001.693121,-00000.151399,-00000.560612,-00000.010872,-00000.015985,-00000.088956
0000000001190,00002.464754,00001.815285,00001.861589,00003.233370,00002.663912,00002.715671,00002.660361,00003.106596,00002.441987,00002.266220,-00001.689710,-00000.151713,-00000.561008,-00000.010754,-00000.015129,-00000.088142
0000000001191,00002.465137,00001.815619,00001.861397,00003.232758,00002.664307,00002.715939,00002.660204,00003.106761,00002.441777,00002.266124,-00001.685513,-00000.151742,-00000.561780,-00000.010706,-00000.014333,-00000.086975
0000000001192,00002.464992,00001.815918,00001.860693,00003.232022,00002.663932,00002.715867,00002.660076,00003.106621,00002.441115,00002.265823,-00001.674321,-00000.152760,-00000.563500,-00000.011291,-00000.012565,-00000.084926
0000000001193,00002.465231,00001.816171,00001.860456,00003.228493,00002.663612,00002.715807,00002.659605,00003.106502,00002.440189,00002.265567,-00001.664067,-00000.153263,-00000.565326,-00000.012152,-00000.012148,-00000.083907
0000000001194,00002.465153,00001.816081,00001.861098,00003.224763,00002.663668,00002.715544,00002.659608,00003.106299,00002.440155,00002.265408,-00001.659096,-00000.153457,-00000.566142,-00000.012651,-00000.011974,-00000.083450
0000000001195,00002.465005,00001.815948,00001.861527,00003.217960,00002.663751,00002.715531,00002.659569,00003.106590,00002.439372,00002.264851,-00001.645664,-00000.153857,-00000.568302,-00000.013309,-00000.010919,-00000.081562
0000000001196,00002.465300,00001.815900,00001.862044,00003.215181,00002.663780,00002.715711,00002.659533,00003.106623,00002.439400,00002.264801,-00001.637710,-00000.154419,-00000.569240,-00000.013871,-00000.010093,-00000.080178
0000000001197,00002.464768,00001.816519,00001.862332,00003.209802,00002.663846,00002.716036,00002.659867,00003.106504,00002.439454,00002.263971,-00001.624919,-00000.154676,-00000.570939,-00000.014348,-00000.008592,-00000.077688
0000000001198,00002.465041,00001.816321,00001.862577,00003.205224,00002.663902,00002.715950,00002.659789,00003.106402,00002.438775,00002.263628,-00001.614755,-00000.154532,-00000.572022,-00000.014754,-00000.007677,-00000.075206
0000000001199,00002.464999,00001.816227,00001.862729,00003.203404,00002.663932,00002.716129,00002.659382,00003.106612,00002.438488,00002.263275,-00001.609450,-00000.154633,-00000.572674,-00000.015433,-00000.007825,-00000.073893
0000000001200,00002.465273,00001.816152,00001.863148,00003.201689,00002.664313,00002.716239,00002.659360,00003.106678,00002.438196,00002.263335,-00001.603563,-00000.154771,-00000.573670,-00000.016188,-00000.007987,-00000.072729
0000000001201,00002.465108,00001.816371,00001.862909,00003.198680,00002.664299,00002.715760,00002.659358,00003.106188,00002.437341,00002.262724,-00001.591859,-00000.154976,-00000.574710,-00000.016683,-00000.007525,-00000.070259
0000000001202,00002.464967,00001.816557,00001.861980,00003.197570,00002.663925,00002.715715,00002.659356,00003.105770,00002.437339,00002.261840,-00001.580807,-00000.155512,-00000.576321,-00000.017467,-00000.007494,-00000.068156
0000000001203,00002.464579,00001.816808,00001.861456,00003.196331,00002.663997,00002.715509,00002.659367,00003.105637,00002.437154,00002.261676,-00001.575448,-00000.155938,-00000.577395,-00000.018349,-00000.007685,-00000.067029
0000000001204,00002.464154,00001.817293,00001.861832,00003.193756,00002.663668,00002.715138,00002.659364,00003.105664,00002.436816,00002.260586,-00001.566473,-00000.156694,-00000.579332,-00000.019974,-00000.007994,-00000.064680
0000000001205,00002.464490,00001.817160,00001.862276,00003.193133,00002.663698,00002.715336,00002.659352,00003.106201,00002.436663,00002.260448,-00001.563913,-00000.157030,-00000.580203,-00000.020718,-00000.007755,-00000.063498
0000000001206,00002.464442,00001.817229,00001.861804,00003.191033,00002.663413,00002.714991,00002.659351,00003.105781,00002.436036,00002.258814,-00001.559193,-00000.157624,-00000.581723,-00000.021991,-00000.007690,-00000.061311
0000000001207,00002.464828,00001.817021,00001.861698,00003.190369,00002.663458,00002.715226,00002.659358,00003.106016,00002.435922,00002.258141,-00001.557393,-00000.157886,-00000.582385,-00000.022535,-00000.008225,-00000.060307
0000000001208,00002.464729,00001.817111,00001.860949,00003.188680,00002.663572,00002.715261,00002.659356,00003.105987,00002.435768,00002.256851,-00001.557996,-00000.158353,-00000.583218,-00000.023538,-00000.010267,-00000.059321
0000000001209,00002.464282,00001.817550,00001.861037,00003.187243,00002.663668,00002.715290,00002.659354,00003.105599,00002.435999,00002.254664,-00001.562501,-00000.158750,-00000.583564,-00000.024391,-00000.012731,-00000.059207
0000000001210,00002.464335,00001.817380,00001.861594,00003.186738,00002.663723,00002.715479,00002.659302,00003.105796,00002.435904,00002.254252,-00001.564370,-00000.158926,-00000.583712,-00000.024782,-00000.013664,-00000.059158
0000000001211,00002.463946,00001.817417,00001.861948,00003.185589,00002.663435,00002.715476,00002.659308,00003.105800,00002.435752,00002.252451,-00001.569014,-00000.159238,-00000.583984,-00000.025813,-00000.015260,-00000.059794
0000000001212,00002.464249,00001.817624,00001.862518,00003.185649,00002.663512,00002.715645,00002.659405,00003.105969,00002.435692,00002.251472,-00001.571776,-00000.159376,-00000.584109,-00000.026099,-00000.015943,-00000.060062
0000000001213,00002.464236,00001.817987,00001.862736,00003.185388,00002.663255,00002.715617,00002.659396,00003.105947,00002.435935,00002.250085,-00001.577859,-00000.159621,-00000.584685,-00000.026934,-00000.017563,-00000.061652
0000000001214,00002.464588,00001.818296,00001.863646,00003.184440,00002.663036,00002.715231,00002.658662,00003.105928,00002.435416,00002.248541,-00001.584489,-00000.160193,-00000.585538,-00000.028008,-00000.017853,-00000.063731
0000000001215,00002.464647,00001.818794,00001.863661,00003.184214,00002.662702,00002.715469,00002.658287,00003.106116,00002.435320,00002.247877,-00001.588374,-00000.160285,-00000.585925,-00000.028075,-00000.017989,-00000.064863
0000000001216,00002.464524,00001.818922,00001.864059,00003.183996,00002.662487,00002.715627,00002.658038,00003.106275,00002.435337,00002.247227,-00001.593398,-00000.160316,-00000.585902,-00000.028560,-00000.018464,-00000.065863
0000000001217,00002.464471,00001.819817,00001.864047,00003.183255,00002.662745,00002.714514,00002.658595,00003.106207,00002.435633,00002.245746,-00001.607512,-00000.160422,-00000.585848,-00000.029029,-00000.020797,-00000.068404
0000000001218,00002.464787,00001.820217,00001.864037,00003.182987,00002.662239,00002.713203,00002.658706,00003.106150,00002.435521,00002.243396,-00001.624607,-00000.160511,-00000.585077,-00000.028703,-00000.021333,-00000.070930
0000000001219,00002.464770,00001.820578,00001.863630,00003.182847,00002.661987,00002.712415,00002.658692,00003.105949,00002.435416,00002.241998,-00001.633663,-00000.160568,-00000.584382,-00000.028336,-00000.021950,-00000.072618
0000000001220,00002.465405,00001.820864,00001.863682,00003.182640,00002.661957,00002.711779,00002.658426,00003.106293,00002.435337,00002.239843,-00001.651948,-00000.160636,-00000.583466,-00000.028476,-00000.024491,-00000.076331
0000000001221,00002.465287,00001.821155,00001.863350,00003.182564,00002.661805,00002.712225,00002.658210,00003.106422,00002.435346,00002.238713,-00001.661167,-00000.160653,-00000.582882,-00000.028190,-00000.025226,-00000.077961
0000000001222,00002.465120,00001.820993,00001.863081,00003.181311,00002.662164,00002.711981,00002.658378,00003.106695,00002.434915,00002.236683,-00001.680442,-00000.161433,-00000.582189,-00000.027626,-00000.025465,-00000.081605
0000000001223,00002.464977,00001.821218,00001.862126,00003.180606,00002.662470,00002.711772,00002.658522,00003.106565,00002.435273,00002.234593,-00001.699027,-00000.162098,-00000.581963,-00000.026783,-00000.024218,-00000.085433
0000000001224,00002.464983,00001.821130,00001.861155,00003.180633,00002.662253,00002.709359,00002.658514,00003.106737,00002.435210,00002.233510,-00001.708733,-00000.162391,-00000.581504,-00000.026188,-00000.024209,-00000.087478
0000000001225,00002.464861,00001.820608,00001.860124,00003.179304,00002.662546,00002.702285,00002.658638,00003.106601,00002.434436,00002.230803,-00001.733270,-00000.162914,-00000.580291,-00000.024833,-00000.025326,-00000.092972
0000000001226,00002.464444,00001.820175,00001.859278,00003.178408,00002.662281,00002.698574,00002.658385,00003.106360,00002.433715,00002.228867,-00001.747878,-00000.163146,-00000.579173,-00000.024057,-00000.026028,-00000.095604
0000000001227,00002.463676,00001.819433,00001.857801,00003.175958,00002.662207,00002.691652,00002.658528,00003.105917,00002.432801,00002.225399,-00001.776752,-00000.163556,-00000.576855,-00000.021931,-00000.027236,-00000.100253
0000000001228,00002.463749,00001.818075,00001.856543,00003.173510,00002.661781,00002.686122,00002.658286,00003.106628,00002.431297,00002.222447,-00001.803872,-00000.164631,-00000.575608,-00000.020121,-00000.027903,-00000.104574
0000000001229,00002.464121,00001.817859,00001.855994,00003.172921,00002.661582,00002.684021,00002.658336,00003.106764,00002.430824,00002.220766,-00001.817148,-00000.165456,-00000.575243,-00000.019322,-00000.027257,-00000.107045
0000000001230,00002.464127,00001.816736,00001.855005,00003.170925,00002.660886,00002.679626,00002.657760,00003.106987,00002.429251,00002.217415,-00001.841526,-00000.166974,-00000.575324,-00000.018626,-00000.026832,-00000.111081
0000000001231,00002.464171,00001.816608,00001.854560,00003.170270,00002.660801,00002.678079,00002.657906,00003.107077,00002.428563,00002.216143,-00001.851623,-00000.167668,-00000.575710,-00000.018303,-00000.026266,-00000.113089
0000000001232,00002.464170,00001.815671,00001.853784,00003.167942,00002.660584,00002.674204,00002.657394,00003.107253,00002.426964,00002.213116,-00001.868698,-00000.169220,-00000.576810,-00000.017758,-00000.024174,-00000.116226
0000000001233,00002.463774,00001.815637,00001.853446,00003.166690,00002.660462,00002.672282,00002.657524,00003.106975,00002.426826,00002.211770,-00001.876171,-00000.170092,-00000.577519,-00000.017165,-00000.022696,-00000.117388
0000000001234,00002.463106,00001.815570,00001.852473,00003.164894,00002.660295,00002.669270,00002.657069,00003.106440,00002.426210,00002.209031,-00001.891772,-00000.170920,-00000.577624,-00000.016064,-00000.021135,-00000.120611
0000000001235,00002.462900,00001.815513,00001.852007,00003.163366,00002.660516,00002.666705,00002.656682,00003.106348,00002.425324,00002.206699,-00001.904328,-00000.171625,-00000.578439,-00000.015852,-00000.020532,-00000.123718
0000000001236,00002.462969,00001.815485,00001.851720,00003.162937,00002.660055,00002.665754,00002.656534,00003.106441,00002.424962,00002.205807,-00001.909926,-00000.171951,-00000.579012,-00000.015729,-00000.019679,-00000.124758
0000000001237,00002.463088,00001.815101,00001.851611,00003.162065,00002.659979,00002.664522,00002.656352,00003.106632,00002.424206,00002.205439,-00001.915017,-00000.172226,-00000.579133,-00000.015309,-00000.018930,-00000.126001
0000000001238,00002.463248,00001.814388,00001.851636,00003.160594,00002.659522,00002.663026,00002.656071,00003.106874,00002.422891,00002.204729,-00001.924842,-00000.172737,-00000.578997,-00000.014484,-00000.017203,-00000.127944
0000000001239,00002.463021,00001.813781,00001.851295,00003.158980,00002.659495,00002.661028,00002.655832,00003.106717,00002.422135,00002.203763,-00001.931029,-00000.173172,-00000.579245,-00000.014144,-00000.016459,-00000.128509
0000000001240,00002.463117,00001.813863,00001.851072,00003.158452,00002.659836,00002.660132,00002.656104,00003.106829,00002.422321,00002.203529,-00001.934491,-00000.173373,-00000.579019,-00000.013805,-00000.015925,-00000.129159
0000000001241,00002.462547,00001.814060,00001.850089,00003.157881,00002.659763,00002.658563,00002.656223,00003.106316,00002.422375,00002.202378,-00001.942871,-00000.173350,-00000.578175,-00000.012478,-00000.016459,-00000.130995
