0000000000739,00002.387695,00001.684570,00001.826172,00003.496094,00002.646484,00002.758789,00002.636719,00003.090820,00002.431641,00002.377930,-00000.556641,-00000.063477,-00000.537109,-00000.034180,-00000.068359,-00000.263672
0000000000740,00002.392578,00001.689453,00001.826172,00003.491211,00002.651367,00002.758789,00002.636719,00003.095703,00002.426758,00002.382813,-00000.571289,-00000.063477,-00000.541992,-00000.034180,-00000.053711,-00000.258789
0000000000741,00002.412109,00001.694336,00001.831055,00003.491211,00002.651367,00002.763672,00002.641602,00003.095703,00002.431641,00002.382813,-00000.585938,-00000.078125,-00000.556641,-00000.039063,-00000.039063,-00000.249023
0000000000742,00002.416992,00001.708984,00001.835938,00003.481445,00002.651367,00002.763672,00002.646484,00003.095703,00002.436523,00002.382813,-00000.600586,-00000.083008,-00000.561523,-00000.039063,-00000.029297,-00000.244141
0000000000743,00002.416992,00001.713867,00001.840820,00003.486328,00002.656250,00002.763672,00002.651367,00003.095703,00002.441406,00002.382813,-00000.605469,-00000.083008,-00000.561523,-00000.039063,-00000.029297,-00000.249023
0000000000744,00002.421875,00001.708984,00001.840820,00003.481445,00002.651367,00002.763672,00002.641602,00003.100586,00002.436523,00002.387695,-00000.610352,-00000.083008,-00000.561523,-00000.039063,-00000.034180,-00000.249023
0000000000745,00002.421875,00001.718750,00001.840820,00003.466797,00002.656250,00002.763672,00002.646484,00003.100586,00002.436523,00002.387695,-00000.610352,-00000.083008,-00000.566406,-00000.039063,-00000.043945,-00000.244141
0000000000746,00002.421875,00001.718750,00001.840820,00003.471680,00002.651367,00002.763672,00002.641602,00003.095703,00002.441406,00002.382813,-00000.615234,-00000.087891,-00000.566406,-00000.043945,-00000.039063,-00000.239258
0000000000747,00002.416992,00001.723633,00001.840820,00003.461914,00002.651367,00002.758789,00002.646484,00003.095703,00002.441406,00002.382813,-00000.620117,-00000.092773,-00000.576172,-00000.043945,-00000.034180,-00000.234375
0000000000748,00002.421875,00001.728516,00001.840820,00003.457031,00002.651367,00002.763672,00002.641602,00003.100586,00002.441406,00002.382813,-00000.625000,-00000.092773,-00000.576172,-00000.048828,-00000.029297,-00000.224609
0000000000749,00002.416992,00001.728516,00001.835938,00003.461914,00002.651367,00002.763672,00002.646484,00003.095703,00002.441406,00002.382813,-00000.625000,-00000.092773,-00000.576172,-00000.048828,-00000.024414,-00000.219727
0000000000750,00002.421875,00001.733398,00001.840820,00003.461914,00002.651367,00002.763672,00002.646484,00003.095703,00002.446289,00002.382813,-00000.615234,-00000.092773,-00000.576172,-00000.048828,-00000.029297,-00000.219727
0000000000751,00002.426758,00001.733398,00001.845703,00003.457031,00002.656250,00002.763672,00002.641602,00003.100586,00002.446289,00002.382813,-00000.615234,-00000.097656,-00000.576172,-00000.053711,-00000.034180,-00000.214844
0000000000752,00002.421875,00001.738281,00001.840820,00003.457031,00002.656250,00002.763672,00002.646484,00003.100586,00002.446289,00002.382813,-00000.610352,-00000.097656,-00000.581055,-00000.048828,-00000.029297,-00000.214844
0000000000753,00002.421875,00001.738281,00001.845703,00003.457031,00002.656250,00002.763672,00002.646484,00003.105469,00002.446289,00002.387695,-00000.610352,-00000.102539,-00000.581055,-00000.048828,-00000.024414,-00000.209961
0000000000754,00002.426758,00001.743164,00001.845703,00003.452148,00002.661133,00002.763672,00002.646484,00003.105469,00002.441406,00002.387695,-00000.610352,-00000.102539,-00000.581055,-00000.053711,-00000.014648,-00000.209961
0000000000755,00002.426758,00001.743164,00001.845703,00003.457031,00002.661133,00002.768555,00002.651367,00003.105469,00002.451172,00002.387695,-00000.605469,-00000.107422,-00000.585938,-00000.053711,-00000.014648,-00000.209961
0000000000756,00002.431641,00001.743164,00001.850586,00003.461914,00002.656250,00002.768555,00002.646484,00003.105469,00002.451172,00002.387695,-00000.605469,-00000.107422,-00000.585938,-00000.053711,-00000.014648,-00000.209961
0000000000757,00002.426758,00001.748047,00001.850586,00003.457031,00002.661133,00002.763672,00002.651367,00003.100586,00002.451172,00002.387695,-00000.600586,-00000.102539,-00000.585938,-00000.053711,-00000.014648,-00000.214844
0000000000758,00002.426758,00001.748047,00001.845703,00003.452148,00002.661133,00002.763672,00002.651367,00003.105469,00002.451172,00002.387695,-00000.600586,-00000.107422,-00000.581055,-00000.053711,-00000.019531,-00000.209961
0000000000759,00002.426758,00001.748047,00001.845703,00003.452148,00002.661133,00002.763672,00002.651367,00003.100586,00002.456055,00002.387695,-00000.595703,-00000.107422,-00000.590820,-00000.053711,-00000.024414,-00000.209961
0000000000760,00002.426758,00001.752930,00001.850586,00003.452148,00002.656250,00002.763672,00002.651367,00003.100586,00002.456055,00002.387695,-00000.590820,-00000.112305,-00000.585938,-00000.058594,-00000.024414,-00000.205078
0000000000761,00002.431641,00001.752930,00001.855469,00003.452148,00002.661133,00002.763672,00002.651367,00003.100586,00002.451172,00002.387695,-00000.585938,-00000.112305,-00000.590820,-00000.058594,-00000.014648,-00000.205078
0000000000762,00002.431641,00001.748047,00001.850586,00003.452148,00002.656250,00002.768555,00002.646484,00003.105469,00002.451172,00002.387695,-00000.576172,-00000.112305,-00000.595703,-00000.058594,-00000.009766,-00000.205078
0000000000763,00002.431641,00001.752930,00001.850586,00003.457031,00002.656250,00002.763672,00002.651367,00003.100586,00002.451172,00002.387695,-00000.566406,-00000.112305,-00000.590820,-00000.058594,-00000.004883,-00000.205078
0000000000764,00002.436523,00001.757813,00001.850586,00003.461914,00002.656250,00002.768555,00002.651367,00003.105469,00002.456055,00002.387695,-00000.561523,-00000.112305,-00000.590820,-00000.053711,-00000.004883,-00000.205078
0000000000765,00002.431641,00001.748047,00001.855469,00003.457031,00002.656250,00002.763672,00002.646484,00003.105469,00002.451172,00002.387695,-00000.561523,-00000.112305,-00000.595703,-00000.053711,-00000.009766,-00000.205078
0000000000766,00002.431641,00001.752930,00001.850586,00003.457031,00002.651367,00002.768555,00002.646484,00003.105469,00002.451172,00002.387695,-00000.556641,-00000.112305,-00000.590820,-00000.053711,-00000.009766,-00000.209961
0000000000767,00002.426758,00001.752930,00001.845703,00003.457031,00002.656250,00002.763672,00002.651367,00003.095703,00002.456055,00002.382813,-00000.551758,-00000.117188,-00000.590820,-00000.053711,-00000.014648,-00000.209961
0000000000768,00002.431641,00001.748047,00001.855469,00003.457031,00002.661133,00002.768555,00002.646484,00003.105469,00002.451172,00002.387695,-00000.551758,-00000.117188,-00000.590820,-00000.053711,-00000.014648,-00000.205078
0000000000769,00002.431641,00001.748047,00001.850586,00003.461914,00002.656250,00002.768555,00002.646484,00003.100586,00002.456055,00002.382813,-00000.551758,-00000.117188,-00000.590820,-00000.053711,-00000.004883,-00000.205078
0000000000770,00002.431641,00001.748047,00001.850586,00003.457031,00002.661133,00002.768555,00002.646484,00003.105469,00002.451172,00002.387695,-00000.551758,-00000.117188,-00000.595703,-00000.053711,-00000.004883,-00000.205078
0000000000771,00002.426758,00001.748047,00001.845703,00003.457031,00002.656250,00002.768555,00002.646484,00003.100586,00002.451172,00002.387695,-00000.546875,-00000.117188,-00000.595703,-00000.053711,00000.000000,-00000.205078
0000000000772,00002.421875,00001.752930,00001.845703,00003.461914,00002.656250,00002.763672,00002.651367,00003.100586,00002.446289,00002.387695,-00000.541992,-00000.117188,-00000.595703,-00000.053711,00000.004883,-00000.205078
0000000000773,00002.421875,00001.752930,00001.845703,00003.466797,00002.656250,00002.768555,00002.651367,00003.105469,00002.451172,00002.382813,-00000.537109,-00000.117188,-00000.590820,-00000.053711,00000.004883,-00000.209961
0000000000774,00002.416992,00001.752930,00001.840820,00003.461914,00002.656250,00002.758789,00002.646484,00003.100586,00002.446289,00002.382813,-00000.537109,-00000.117188,-00000.590820,-00000.048828,00000.004883,-00000.209961
0000000000775,00002.421875,00001.748047,00001.840820,00003.457031,00002.656250,00002.758789,00002.651367,00003.100586,00002.446289,00002.387695,-00000.537109,-00000.117188,-00000.590820,-00000.048828,00000.004883,-00000.214844
0000000000776,00002.421875,00001.748047,00001.840820,00003.457031,00002.661133,00002.763672,00002.646484,00003.100586,00002.441406,00002.387695,-00000.537109,-00000.117188,-00000.590820,-00000.053711,00000.004883,-00000.209961
0000000000777,00002.421875,00001.748047,00001.845703,00003.461914,00002.656250,00002.768555,00002.646484,00003.105469,00002.446289,00002.382813,-00000.532227,-00000.117188,-00000.590820,-00000.048828,00000.004883,-00000.205078
0000000000778,00002.421875,00001.748047,00001.840820,00003.461914,00002.651367,00002.763672,00002.646484,00003.100586,00002.446289,00002.377930,-00000.527344,-00000.117188,-00000.590820,-00000.053711,00000.004883,-00000.205078
0000000000779,00002.421875,00001.748047,00001.840820,00003.461914,00002.656250,00002.763672,00002.651367,00003.105469,00002.446289,00002.382813,-00000.527344,-00000.117188,-00000.590820,-00000.053711,00000.004883,-00000.205078
0000000000780,00002.416992,00001.748047,00001.840820,00003.466797,00002.656250,00002.758789,00002.646484,00003.095703,00002.446289,00002.377930,-00000.522461,-00000.117188,-00000.590820,-00000.048828,00000.000000,-00000.205078
0000000000781,00002.426758,00001.752930,00001.840820,00003.471680,00002.651367,00002.763672,00002.646484,00003.095703,00002.446289,00002.382813,-00000.522461,-00000.117188,-00000.590820,-00000.053711,00000.004883,-00000.209961
0000000000782,00002.421875,00001.748047,00001.845703,00003.466797,00002.661133,00002.763672,00002.646484,00003.100586,00002.446289,00002.382813,-00000.527344,-00000.117188,-00000.590820,-00000.048828,00000.004883,-00000.209961
0000000000783,00002.421875,00001.748047,00001.845703,00003.461914,00002.656250,00002.763672,00002.646484,00003.100586,00002.441406,00002.382813,-00000.527344,-00000.117188,-00000.590820,-00000.053711,-00000.004883,-00000.205078
0000000000784,00002.397461,00001.748047,00001.845703,00003.466797,00002.661133,00002.763672,00002.651367,00003.100586,00002.446289,00002.382813,-00000.527344,-00000.117188,-00000.590820,-00000.053711,-00000.009766,-00000.205078
0000000000785,00002.402344,00001.748047,00001.845703,00003.466797,00002.656250,00002.763672,00002.646484,00003.105469,00002.441406,00002.382813,-00000.527344,-00000.117188,-00000.590820,-00000.053711,-00000.004883,-00000.205078
0000000000786,00002.392578,00001.748047,00001.840820,00003.461914,00002.656250,00002.758789,00002.651367,00003.095703,00002.446289,00002.382813,-00000.527344,-00000.117188,-00000.585938,-00000.048828,-00000.004883,-00000.205078
0000000000787,00002.397461,00001.748047,00001.840820,00003.471680,00002.651367,00002.768555,00002.646484,00003.100586,00002.451172,00002.382813,-00000.527344,-00000.112305,-00000.585938,-00000.048828,-00000.004883,-00000.205078
0000000000788,00002.397461,00001.748047,00001.840820,00003.471680,00002.656250,00002.758789,00002.651367,00003.100586,00002.451172,00002.382813,-00000.527344,-00000.112305,-00000.585938,-00000.048828,-00000.004883,-00000.200195
0000000000789,00002.402344,00001.748047,00001.845703,00003.461914,00002.656250,00002.763672,00002.646484,00003.100586,00002.446289,00002.382813,-00000.527344,-00000.117188,-00000.585938,-00000.053711,-00000.009766,-00000.200195
0000000000790,00002.397461,00001.748047,00001.840820,00003.466797,00002.656250,00002.763672,00002.651367,00003.100586,00002.451172,00002.382813,-00000.527344,-00000.112305,-00000.585938,-00000.053711,-00000.009766,-00000.200195
0000000000791,00002.397461,00001.752930,00001.840820,00003.471680,00002.656250,00002.763672,00002.651367,00003.100586,00002.451172,00002.382813,-00000.527344,-00000.112305,-00000.585938,-00000.053711,-00000.014648,-00000.209961
0000000000792,00002.402344,00001.748047,00001.845703,00003.471680,00002.656250,00002.768555,00002.651367,00003.100586,00002.451172,00002.382813,-00000.522461,-00000.112305,-00000.585938,-00000.053711,-00000.024414,-00000.209961
0000000000793,00002.397461,00001.748047,00001.840820,00003.471680,00002.651367,00002.763672,00002.646484,00003.100586,00002.451172,00002.382813,-00000.522461,-00000.112305,-00000.581055,-00000.053711,-00000.024414,-00000.209961
0000000000794,00002.407227,00001.748047,00001.845703,00003.471680,00002.656250,00002.768555,00002.646484,00003.100586,00002.451172,00002.382813,-00000.527344,-00000.112305,-00000.585938,-00000.053711,-00000.019531,-00000.209961
0000000000795,00002.402344,00001.748047,00001.840820,00003.466797,00002.656250,00002.763672,00002.651367,00003.100586,00002.456055,00002.382813,-00000.527344,-00000.112305,-00000.585938,-00000.053711,-00000.019531,-00000.205078
0000000000796,00002.402344,00001.752930,00001.845703,00003.466797,00002.656250,00002.763672,00002.651367,00003.100586,00002.456055,00002.387695,-00000.522461,-00000.112305,-00000.585938,-00000.048828,-00000.014648,-00000.205078
0000000000797,00002.407227,00001.748047,00001.845703,00003.476563,00002.656250,00002.773438,00002.646484,00003.105469,00002.451172,00002.387695,-00000.522461,-00000.112305,-00000.581055,-00000.048828,-00000.019531,-00000.205078
0000000000798,00002.407227,00001.748047,00001.845703,00003.461914,00002.661133,00002.763672,00002.651367,00003.100586,00002.451172,00002.387695,-00000.522461,-00000.112305,-00000.585938,-00000.053711,-00000.024414,-00000.205078
0000000000799,00002.407227,00001.748047,00001.845703,00003.471680,00002.656250,00002.768555,00002.646484,00003.105469,00002.451172,00002.387695,-00000.522461,-00000.112305,-00000.581055,-00000.053711,-00000.024414,-00000.205078
0000000000800,00002.402344,00001.752930,00001.845703,00003.471680,00002.656250,00002.763672,00002.651367,00003.095703,00002.456055,00002.382813,-00000.522461,-00000.107422,-00000.585938,-00000.053711,-00000.024414,-00000.209961
0000000000801,00002.407227,00001.748047,00001.850586,00003.466797,00002.656250,00002.768555,00002.646484,00003.105469,00002.451172,00002.387695,-00000.522461,-00000.107422,-00000.581055,-00000.048828,-00000.019531,-00000.209961
0000000000802,00002.402344,00001.752930,00001.845703,00003.466797,00002.656250,00002.763672,00002.651367,00003.100586,00002.451172,00002.387695,-00000.522461,-00000.112305,-00000.585938,-00000.048828,-00000.014648,-00000.205078
0000000000803,00002.412109,00001.752930,00001.850586,00003.471680,00002.661133,00002.773438,00002.646484,00003.105469,00002.451172,00002.387695,-00000.522461,-00000.112305,-00000.581055,-00000.048828,-00000.014648,-00000.205078
0000000000804,00002.402344,00001.752930,00001.845703,00003.471680,00002.656250,00002.768555,00002.651367,00003.100586,00002.456055,00002.382813,-00000.522461,-00000.112305,-00000.581055,-00000.048828,-00000.014648,-00000.205078
0000000000805,00002.412109,00001.752930,00001.850586,00003.476563,00002.656250,00002.773438,00002.651367,00003.100586,00002.456055,00002.387695,-00000.522461,-00000.112305,-00000.581055,-00000.048828,-00000.009766,-00000.205078
0000000000806,00002.407227,00001.752930,00001.850586,00003.466797,00002.661133,00002.768555,00002.651367,00003.100586,00002.451172,00002.387695,-00000.522461,-00000.112305,-00000.581055,-00000.048828,-00000.009766,-00000.205078
0000000000807,00002.407227,00001.748047,00001.855469,00003.466797,00002.661133,00002.768555,00002.646484,00003.105469,00002.451172,00002.387695,-00000.522461,-00000.112305,-00000.581055,-00000.048828,-00000.004883,-00000.200195
0000000000808,00002.412109,00001.748047,00001.855469,00003.466797,00002.661133,00002.768555,00002.651367,00003.105469,00002.451172,00002.387695,-00000.522461,-00000.107422,-00000.581055,-00000.043945,-00000.004883,-00000.205078
0000000000809,00002.412109,00001.752930,00001.850586,00003.471680,00002.656250,00002.768555,00002.646484,00003.100586,00002.456055,00002.387695,-00000.527344,-00000.112305,-00000.581055,-00000.043945,-00000.004883,-00000.205078
0000000000810,00002.412109,00001.752930,00001.855469,00003.466797,00002.661133,00002.768555,00002.651367,00003.100586,00002.456055,00002.387695,-00000.527344,-00000.112305,-00000.581055,-00000.043945,00000.000000,-00000.200195
0000000000811,00002.416992,00001.752930,00001.855469,00003.471680,00002.666016,00002.773438,00002.651367,00003.110352,00002.451172,00002.392578,-00000.527344,-00000.112305,-00000.581055,-00000.043945,00000.004883,-00000.205078
0000000000812,00002.412109,00001.748047,00001.855469,00003.466797,00002.661133,00002.768555,00002.646484,00003.105469,00002.451172,00002.387695,-00000.527344,-00000.112305,-00000.581055,-00000.039063,00000.004883,-00000.200195
0000000000813,00002.412109,00001.752930,00001.850586,00003.471680,00002.661133,00002.773438,00002.651367,00003.105469,00002.456055,00002.387695,-00000.527344,-00000.112305,-00000.581055,-00000.043945,00000.000000,-00000.205078
0000000000814,00002.412109,00001.752930,00001.850586,00003.466797,00002.661133,00002.768555,00002.651367,00003.100586,00002.456055,00002.392578,-00000.522461,-00000.112305,-00000.581055,-00000.043945,-00000.004883,-00000.205078
0000000000815,00002.412109,00001.748047,00001.850586,00003.466797,00002.656250,00002.768555,00002.646484,00003.105469,00002.446289,00002.392578,-00000.527344,-00000.112305,-00000.581055,-00000.043945,-00000.004883,-00000.209961
0000000000816,00002.407227,00001.748047,00001.850586,00003.466797,00002.661133,00002.763672,00002.651367,00003.105469,00002.456055,00002.392578,-00000.527344,-00000.112305,-00000.581055,-00000.043945,-00000.004883,-00000.209961
0000000000817,00002.412109,00001.748047,00001.850586,00003.466797,00002.656250,00002.768555,00002.646484,00003.100586,00002.451172,00002.392578,-00000.522461,-00000.112305,-00000.581055,-00000.043945,00000.000000,-00000.209961
0000000000818,00002.412109,00001.748047,00001.850586,00003.466797,00002.656250,00002.768555,00002.646484,00003.105469,00002.451172,00002.392578,-00000.522461,-00000.112305,-00000.581055,-00000.043945,00000.004883,-00000.209961
0000000000819,00002.416992,00001.748047,00001.850586,00003.471680,00002.661133,00002.768555,00002.646484,00003.105469,00002.451172,00002.392578,-00000.517578,-00000.112305,-00000.581055,-00000.043945,00000.004883,-00000.205078
0000000000820,00002.407227,00001.748047,00001.850586,00003.466797,00002.656250,00002.768555,00002.646484,00003.100586,00002.451172,00002.392578,-00000.522461,-00000.112305,-00000.581055,-00000.043945,00000.004883,-00000.205078
0000000000821,00002.407227,00001.748047,00001.845703,00003.461914,00002.661133,00002.768555,00002.651367,00003.100586,00002.451172,00002.392578,-00000.522461,-00000.112305,-00000.581055,-00000.043945,00000.000000,-00000.205078
0000000000822,00002.412109,00001.748047,00001.850586,00003.471680,00002.656250,00002.768555,00002.646484,00003.105469,00002.451172,00002.392578,-00000.522461,-00000.112305,-00000.581055,-00000.043945,00000.000000,-00000.209961
0000000000823,00002.407227,00001.748047,00001.850586,00003.461914,00002.661133,00002.768555,00002.651367,00003.100586,00002.451172,00002.392578,-00000.522461,-00000.107422,-00000.576172,-00000.039063,00000.000000,-00000.209961
0000000000824,00002.412109,00001.748047,00001.855469,00003.471680,00002.656250,00002.773438,00002.646484,00003.105469,00002.451172,00002.387695,-00000.522461,-00000.107422,-00000.581055,-00000.039063,00000.000000,-00000.209961
0000000000825,00002.412109,00001.748047,00001.850586,00003.471680,00002.656250,00002.768555,00002.646484,00003.105469,00002.456055,00002.387695,-00000.522461,-00000.107422,-00000.581055,-00000.043945,00000.000000,-00000.209961
0000000000826,00002.407227,00001.752930,00001.850586,00003.466797,00002.661133,00002.768555,00002.651367,00003.105469,00002.451172,00002.392578,-00000.522461,-00000.112305,-00000.581055,-00000.043945,00000.000000,-00000.205078
0000000000827,00002.407227,00001.752930,00001.850586,00003.466797,00002.661133,00002.768555,00002.651367,00003.100586,00002.456055,00002.387695,-00000.522461,-00000.112305,-00000.581055,-00000.043945,00000.000000,-00000.205078
0000000000828,00002.412109,00001.748047,00001.855469,00003.466797,00002.661133,00002.768555,00002.651367,00003.105469,00002.451172,00002.392578,-00000.517578,-00000.112305,-00000.576172,-00000.039063,00000.000000,-00000.205078
0000000000829,00002.416992,00001.748047,00001.850586,00003.471680,00002.656250,00002.773438,00002.646484,00003.105469,00002.456055,00002.392578,-00000.517578,-00000.107422,-00000.576172,-00000.043945,00000.000000,-00000.209961
0000000000830,00002.412109,00001.752930,00001.850586,00003.471680,00002.661133,00002.768555,00002.651367,00003.100586,00002.456055,00002.387695,-00000.517578,-00000.112305,-00000.576172,-00000.043945,-00000.004883,-00000.209961
0000000000831,00002.412109,00001.752930,00001.850586,00003.466797,00002.656250,00002.768555,00002.651367,00003.100586,00002.456055,00002.387695,-00000.517578,-00000.107422,-00000.576172,-00000.043945,-00000.004883,-00000.209961
0000000000832,00002.416992,00001.752930,00001.855469,00003.476563,00002.661133,00002.773438,00002.651367,00003.105469,00002.456055,00002.392578,-00000.517578,-00000.112305,-00000.576172,-00000.043945,00000.000000,-00000.209961
0000000000833,00002.416992,00001.748047,00001.855469,00003.466797,00002.661133,00002.773438,00002.651367,00003.105469,00002.451172,00002.392578,-00000.517578,-00000.112305,-00000.576172,-00000.043945,00000.000000,-00000.205078
0000000000834,00002.412109,00001.748047,00001.850586,00003.471680,00002.656250,00002.768555,00002.651367,00003.100586,00002.456055,00002.387695,-00000.517578,-00000.112305,-00000.576172,-00000.043945,00000.004883,-00000.205078
0000000000835,00002.416992,00001.748047,00001.850586,00003.471680,00002.656250,00002.773438,00002.651367,00003.105469,00002.456055,00002.392578,-00000.522461,-00000.112305,-00000.581055,-00000.043945,00000.009766,-00000.205078
0000000000836,00002.412109,00001.748047,00001.850586,00003.466797,00002.661133,00002.768555,00002.651367,00003.100586,00002.456055,00002.392578,-00000.522461,-00000.112305,-00000.581055,-00000.043945,00000.009766,-00000.205078
0000000000837,00002.416992,00001.752930,00001.850586,00003.471680,00002.656250,00002.773438,00002.651367,00003.105469,00002.456055,00002.392578,-00000.517578,-00000.107422,-00000.576172,-00000.039063,00000.004883,-00000.205078
0000000000838,00002.412109,00001.752930,00001.850586,00003.466797,00002.661133,00002.768555,00002.656250,00003.100586,00002.456055,00002.392578,-00000.517578,-00000.112305,-00000.576172,-00000.043945,00000.004883,-00000.209961
0000000000839,00002.412109,00001.752930,00001.850586,00003.466797,00002.661133,00002.768555,00002.656250,00003.100586,00002.460938,00002.392578,-00000.522461,-00000.112305,-00000.581055,-00000.043945,00000.000000,-00000.205078
0000000000840,00002.412109,00001.752930,00001.850586,00003.471680,00002.656250,00002.768555,00002.651367,00003.100586,00002.456055,00002.392578,-00000.522461,-00000.112305,-00000.576172,-00000.043945,00000.000000,-00000.209961
0000000000841,00002.416992,00001.752930,00001.855469,00003.466797,00002.661133,00002.768555,00002.651367,00003.105469,00002.456055,00002.397461,-00000.517578,-00000.107422,-00000.576172,-00000.043945,-00000.004883,-00000.209961
0000000000842,00002.412109,00001.752930,00001.855469,00003.471680,00002.656250,00002.773438,00002.651367,00003.100586,00002.456055,00002.392578,-00000.522461,-00000.112305,-00000.576172,-00000.039063,00000.000000,-00000.209961
0000000000843,00002.416992,00001.752930,00001.855469,00003.476563,00002.661133,00002.773438,00002.651367,00003.105469,00002.456055,00002.397461,-00000.522461,-00000.107422,-00000.576172,-00000.039063,00000.000000,-00000.209961
0000000000844,00002.412109,00001.748047,00001.855469,00003.466797,00002.661133,00002.768555,00002.651367,00003.105469,00002.451172,00002.397461,-00000.522461,-00000.112305,-00000.576172,-00000.039063,00000.004883,-00000.209961
0000000000845,00002.416992,00001.748047,00001.855469,00003.471680,00002.656250,00002.773438,00002.646484,00003.105469,00002.456055,00002.397461,-00000.522461,-00000.107422,-00000.576172,-00000.034180,00000.000000,-00000.209961
0000000000846,00002.412109,00001.752930,00001.855469,00003.466797,00002.661133,00002.763672,00002.651367,00003.105469,00002.456055,00002.397461,-00000.522461,-00000.107422,-00000.576172,-00000.039063,-00000.004883,-00000.209961
0000000000847,00002.416992,00001.752930,00001.860352,00003.466797,00002.666016,00002.758789,00002.651367,00003.110352,00002.456055,00002.402344,-00000.527344,-00000.107422,-00000.571289,-00000.034180,00000.000000,-00000.209961
0000000000848,00002.416992,00001.752930,00001.855469,00003.471680,00002.661133,00002.758789,00002.656250,00003.105469,00002.460938,00002.397461,-00000.527344,-00000.102539,-00000.571289,-00000.034180,00000.000000,-00000.209961
0000000000849,00002.416992,00001.752930,00001.855469,00003.471680,00002.661133,00002.758789,00002.651367,00003.105469,00002.460938,00002.397461,-00000.527344,-00000.107422,-00000.576172,-00000.034180,-00000.004883,-00000.205078
0000000000850,00002.416992,00001.748047,00001.855469,00003.476563,00002.661133,00002.763672,00002.651367,00003.105469,00002.460938,00002.397461,-00000.527344,-00000.107422,-00000.571289,-00000.039063,-00000.004883,-00000.205078
0000000000851,00002.416992,00001.752930,00001.855469,00003.471680,00002.661133,00002.758789,00002.646484,00003.105469,00002.456055,00002.397461,-00000.532227,-00000.107422,-00000.571289,-00000.034180,-00000.004883,-00000.205078
0000000000852,00002.416992,00001.752930,00001.860352,00003.461914,00002.666016,00002.758789,00002.651367,00003.105469,00002.456055,00002.402344,-00000.537109,-00000.102539,-00000.571289,-00000.034180,00000.000000,-00000.205078
0000000000853,00002.412109,00001.757813,00001.855469,00003.466797,00002.666016,00002.758789,00002.656250,00003.105469,00002.456055,00002.397461,-00000.537109,-00000.102539,-00000.571289,-00000.034180,00000.000000,-00000.205078
0000000000854,00002.412109,00001.752930,00001.855469,00003.457031,00002.666016,00002.753906,00002.651367,00003.105469,00002.456055,00002.397461,-00000.537109,-00000.102539,-00000.566406,-00000.034180,00000.004883,-00000.205078
0000000000855,00002.416992,00001.752930,00001.860352,00003.466797,00002.666016,00002.758789,00002.656250,00003.105469,00002.460938,00002.402344,-00000.541992,-00000.102539,-00000.571289,-00000.034180,00000.004883,-00000.205078
0000000000856,00002.416992,00001.748047,00001.860352,00003.466797,00002.661133,00002.758789,00002.651367,00003.105469,00002.456055,00002.402344,-00000.551758,-00000.102539,-00000.571289,-00000.034180,00000.004883,-00000.205078
0000000000857,00002.416992,00001.757813,00001.860352,00003.466797,00002.666016,00002.758789,00002.656250,00003.105469,00002.456055,00002.397461,-00000.551758,-00000.097656,-00000.566406,-00000.029297,00000.004883,-00000.205078
0000000000858,00002.416992,00001.752930,00001.860352,00003.466797,00002.666016,00002.758789,00002.646484,00003.110352,00002.451172,00002.397461,-00000.556641,-00000.097656,-00000.571289,-00000.029297,00000.004883,-00000.205078
0000000000859,00002.416992,00001.752930,00001.860352,00003.461914,00002.666016,00002.758789,00002.656250,00003.110352,00002.456055,00002.402344,-00000.556641,-00000.097656,-00000.566406,-00000.029297,00000.004883,-00000.205078
0000000000860,00002.416992,00001.752930,00001.855469,00003.461914,00002.666016,00002.758789,00002.651367,00003.105469,00002.460938,00002.402344,-00000.556641,-00000.097656,-00000.566406,-00000.029297,00000.004883,-00000.205078
0000000000861,00002.421875,00001.752930,00001.860352,00003.466797,00002.661133,00002.773438,00002.651367,00003.110352,00002.456055,00002.402344,-00000.556641,-00000.097656,-00000.566406,-00000.029297,00000.004883,-00000.205078
0000000000862,00002.416992,00001.748047,00001.855469,00003.457031,00002.666016,00002.768555,00002.651367,00003.110352,00002.456055,00002.402344,-00000.556641,-00000.097656,-00000.571289,-00000.029297,00000.004883,-00000.205078
0000000000863,00002.412109,00001.748047,00001.850586,00003.457031,00002.656250,00002.768555,00002.646484,00003.100586,00002.456055,00002.397461,-00000.551758,-00000.097656,-00000.566406,-00000.029297,00000.009766,-00000.205078
0000000000864,00002.421875,00001.752930,00001.855469,00003.457031,00002.661133,00002.773438,00002.646484,00003.110352,00002.456055,00002.402344,-00000.551758,-00000.097656,-00000.566406,-00000.024414,00000.014648,-00000.205078
0000000000865,00002.416992,00001.752930,00001.855469,00003.452148,00002.661133,00002.768555,00002.656250,00003.105469,00002.460938,00002.402344,-00000.546875,-00000.097656,-00000.566406,-00000.029297,00000.014648,-00000.200195
0000000000866,00002.412109,00001.752930,00001.855469,00003.457031,00002.661133,00002.768555,00002.651367,00003.105469,00002.460938,00002.397461,-00000.546875,-00000.097656,-00000.566406,-00000.029297,00000.014648,-00000.200195
0000000000867,00002.412109,00001.748047,00001.850586,00003.457031,00002.656250,00002.768555,00002.651367,00003.105469,00002.456055,00002.397461,-00000.546875,-00000.102539,-00000.566406,-00000.029297,00000.014648,-00000.200195
0000000000868,00002.416992,00001.748047,00001.855469,00003.452148,00002.661133,00002.768555,00002.651367,00003.105469,00002.451172,00002.402344,-00000.546875,-00000.097656,-00000.566406,-00000.029297,00000.009766,-00000.200195
0000000000869,00002.416992,00001.752930,00001.850586,00003.461914,00002.661133,00002.768555,00002.651367,00003.105469,00002.456055,00002.397461,-00000.546875,-00000.097656,-00000.571289,-00000.029297,00000.009766,-00000.200195
0000000000870,00002.412109,00001.752930,00001.850586,00003.452148,00002.661133,00002.768555,00002.651367,00003.105469,00002.456055,00002.402344,-00000.546875,-00000.102539,-00000.571289,-00000.029297,00000.009766,-00000.200195
0000000000871,00002.421875,00001.748047,00001.850586,00003.457031,00002.656250,00002.773438,00002.651367,00003.105469,00002.456055,00002.402344,-00000.546875,-00000.102539,-00000.566406,-00000.029297,00000.014648,-00000.195313
0000000000872,00002.416992,00001.748047,00001.850586,00003.457031,00002.656250,00002.768555,00002.651367,00003.105469,00002.456055,00002.397461,-00000.541992,-00000.097656,-00000.566406,-00000.029297,00000.014648,-00000.200195
0000000000873,00002.416992,00001.752930,00001.850586,00003.461914,00002.656250,00002.773438,00002.651367,00003.110352,00002.460938,00002.402344,-00000.541992,-00000.097656,-00000.566406,-00000.029297,00000.014648,-00000.195313
0000000000874,00002.412109,00001.748047,00001.850586,00003.457031,00002.656250,00002.773438,00002.651367,00003.105469,00002.460938,00002.402344,-00000.546875,-00000.097656,-00000.566406,-00000.024414,00000.009766,-00000.195313
0000000000875,00002.416992,00001.748047,00001.855469,00003.457031,00002.661133,00002.768555,00002.651367,00003.110352,00002.456055,00002.402344,-00000.541992,-00000.097656,-00000.566406,-00000.029297,00000.004883,-00000.195313
0000000000876,00002.416992,00001.748047,00001.850586,00003.457031,00002.656250,00002.773438,00002.646484,00003.110352,00002.456055,00002.397461,-00000.546875,-00000.102539,-00000.566406,-00000.024414,00000.004883,-00000.190430
0000000000877,00002.416992,00001.748047,00001.855469,00003.457031,00002.656250,00002.773438,00002.646484,00003.105469,00002.451172,00002.402344,-00000.541992,-00000.102539,-00000.571289,-00000.024414,00000.004883,-00000.190430
0000000000878,00002.416992,00001.752930,00001.850586,00003.457031,00002.661133,00002.763672,00002.651367,00003.105469,00002.460938,00002.402344,-00000.541992,-00000.102539,-00000.566406,-00000.029297,00000.009766,-00000.195313
0000000000879,00002.416992,00001.748047,00001.855469,00003.457031,00002.656250,00002.773438,00002.646484,00003.110352,00002.456055,00002.402344,-00000.541992,-00000.102539,-00000.566406,-00000.024414,00000.009766,-00000.195313
0000000000880,00002.416992,00001.748047,00001.855469,00003.457031,00002.661133,00002.768555,00002.651367,00003.110352,00002.456055,00002.402344,-00000.541992,-00000.102539,-00000.566406,-00000.029297,00000.009766,-00000.195313
0000000000881,00002.416992,00001.752930,00001.850586,00003.461914,00002.661133,00002.768555,00002.656250,00003.105469,00002.460938,00002.397461,-00000.541992,-00000.102539,-00000.566406,-00000.024414,00000.009766,-00000.195313
0000000000882,00002.412109,00001.752930,00001.850586,00003.457031,00002.661133,00002.768555,00002.656250,00003.105469,00002.460938,00002.402344,-00000.541992,-00000.102539,-00000.566406,-00000.029297,00000.009766,-00000.190430
0000000000883,00002.416992,00001.748047,00001.855469,00003.452148,00002.661133,00002.768555,00002.646484,00003.110352,00002.456055,00002.402344,-00000.541992,-00000.102539,-00000.571289,-00000.024414,00000.014648,-00000.190430
0000000000884,00002.416992,00001.748047,00001.855469,00003.457031,00002.661133,00002.773438,00002.646484,00003.105469,00002.451172,00002.402344,-00000.541992,-00000.102539,-00000.566406,-00000.024414,00000.009766,-00000.190430
0000000000885,00002.421875,00001.748047,00001.855469,00003.457031,00002.656250,00002.773438,00002.646484,00003.105469,00002.456055,00002.402344,-00000.541992,-00000.097656,-00000.566406,-00000.024414,00000.004883,-00000.195313
0000000000886,00002.416992,00001.748047,00001.855469,00003.452148,00002.661133,00002.763672,00002.651367,00003.105469,00002.456055,00002.402344,-00000.541992,-00000.102539,-00000.566406,-00000.024414,00000.004883,-00000.195313
0000000000887,00002.416992,00001.748047,00001.850586,00003.461914,00002.656250,00002.773438,00002.646484,00003.105469,00002.456055,00002.397461,-00000.541992,-00000.102539,-00000.571289,-00000.029297,00000.009766,-00000.195313
0000000000888,00002.416992,00001.748047,00001.850586,00003.457031,00002.661133,00002.768555,00002.656250,00003.105469,00002.456055,00002.402344,-00000.541992,-00000.102539,-00000.566406,-00000.029297,00000.004883,-00000.195313
0000000000889,00002.416992,00001.748047,00001.855469,00003.461914,00002.656250,00002.768555,00002.646484,00003.110352,00002.456055,00002.397461,-00000.541992,-00000.097656,-00000.571289,-00000.024414,00000.009766,-00000.195313
0000000000890,00002.412109,00001.752930,00001.850586,00003.461914,00002.661133,00002.768555,00002.651367,00003.105469,00002.456055,00002.397461,-00000.546875,-00000.102539,-00000.566406,-00000.024414,00000.009766,-00000.195313
0000000000891,00002.412109,00001.748047,00001.850586,00003.457031,00002.661133,00002.763672,00002.651367,00003.100586,00002.456055,00002.397461,-00000.546875,-00000.102539,-00000.566406,-00000.024414,00000.009766,-00000.195313
0000000000892,00002.416992,00001.748047,00001.850586,00003.461914,00002.656250,00002.773438,00002.646484,00003.105469,00002.456055,00002.402344,-00000.546875,-00000.097656,-00000.566406,-00000.024414,00000.009766,-00000.195313
0000000000893,00002.416992,00001.748047,00001.855469,00003.461914,00002.656250,00002.773438,00002.646484,00003.110352,00002.456055,00002.397461,-00000.546875,-00000.102539,-00000.566406,-00000.029297,00000.009766,-00000.195313
0000000000894,00002.416992,00001.748047,00001.850586,00003.461914,00002.656250,00002.773438,00002.651367,00003.105469,00002.456055,00002.397461,-00000.546875,-00000.102539,-00000.566406,-00000.024414,00000.009766,-00000.195313
0000000000895,00002.416992,00001.748047,00001.855469,00003.452148,00002.661133,00002.768555,00002.651367,00003.105469,00002.456055,00002.402344,-00000.551758,-00000.097656,-00000.566406,-00000.029297,00000.009766,-00000.190430
0000000000896,00002.416992,00001.748047,00001.855469,00003.461914,00002.661133,00002.768555,00002.646484,00003.110352,00002.456055,00002.402344,-00000.551758,-00000.097656,-00000.566406,-00000.024414,00000.009766,-00000.195313
0000000000897,00002.416992,00001.748047,00001.855469,00003.457031,00002.661133,00002.768555,00002.646484,00003.110352,00002.456055,00002.402344,-00000.556641,-00000.097656,-00000.566406,-00000.024414,00000.004883,-00000.195313
0000000000898,00002.416992,00001.748047,00001.855469,00003.457031,00002.661133,00002.768555,00002.651367,00003.110352,00002.456055,00002.402344,-00000.561523,-00000.097656,-00000.571289,-00000.024414,00000.009766,-00000.190430
0000000000899,00002.416992,00001.748047,00001.855469,00003.452148,00002.666016,00002.768555,00002.651367,00003.105469,00002.451172,00002.402344,-00000.561523,-00000.097656,-00000.571289,-00000.029297,00000.009766,-00000.190430
0000000000900,00002.421875,00001.748047,00001.855469,00003.457031,00002.661133,00002.773438,00002.646484,00003.110352,00002.456055,00002.402344,-00000.566406,-00000.097656,-00000.571289,-00000.029297,00000.009766,-00000.190430
0000000000901,00002.416992,00001.748047,00001.855469,00003.457031,00002.661133,00002.773438,00002.646484,00003.105469,00002.456055,00002.402344,-00000.561523,-00000.102539,-00000.571289,-00000.029297,00000.009766,-00000.190430
0000000000902,00002.416992,00001.748047,00001.855469,00003.457031,00002.661133,00002.768555,00002.646484,00003.105469,00002.456055,00002.397461,-00000.566406,-00000.102539,-00000.571289,-00000.029297,00000.009766,-00000.190430
0000000000903,00002.421875,00001.748047,00001.855469,00003.457031,00002.661133,00002.773438,00002.646484,00003.110352,00002.456055,00002.402344,-00000.566406,-00000.097656,-00000.566406,-00000.024414,00000.009766,-00000.190430
0000000000904,00002.416992,00001.748047,00001.855469,00003.452148,00002.666016,00002.768555,00002.651367,00003.110352,00002.456055,00002.402344,-00000.566406,-00000.097656,-00000.566406,-00000.024414,00000.009766,-00000.190430
0000000000905,00002.416992,00001.748047,00001.855469,00003.457031,00002.661133,00002.768555,00002.646484,00003.105469,00002.460938,00002.397461,-00000.566406,-00000.097656,-00000.566406,-00000.024414,00000.009766,-00000.190430
0000000000906,00002.412109,00001.752930,00001.850586,00003.452148,00002.666016,00002.768555,00002.656250,00003.105469,00002.460938,00002.402344,-00000.566406,-00000.097656,-00000.566406,-00000.024414,00000.009766,-00000.190430
0000000000907,00002.412109,00001.748047,00001.850586,00003.452148,00002.661133,00002.768555,00002.651367,00003.100586,00002.456055,00002.397461,-00000.566406,-00000.097656,-00000.566406,-00000.024414,00000.009766,-00000.190430
0000000000908,00002.416992,00001.748047,00001.850586,00003.457031,00002.656250,00002.773438,00002.646484,00003.110352,00002.456055,00002.397461,-00000.566406,-00000.097656,-00000.566406,-00000.024414,00000.009766,-00000.190430
0000000000909,00002.412109,00001.748047,00001.845703,00003.452148,00002.656250,00002.768555,00002.651367,00003.100586,00002.456055,00002.397461,-00000.571289,-00000.097656,-00000.566406,-00000.019531,00000.009766,-00000.190430
0000000000910,00002.412109,00001.752930,00001.850586,00003.452148,00002.661133,00002.768555,00002.651367,00003.100586,00002.456055,00002.397461,-00000.571289,-00000.097656,-00000.566406,-00000.024414,00000.009766,-00000.190430
0000000000911,00002.416992,00001.748047,00001.845703,00003.452148,00002.656250,00002.768555,00002.646484,00003.100586,00002.456055,00002.392578,-00000.576172,-00000.092773,-00000.566406,-00000.024414,00000.009766,-00000.185547
0000000000912,00002.407227,00001.748047,00001.845703,00003.442383,00002.656250,00002.763672,00002.651367,00003.100586,00002.456055,00002.392578,-00000.576172,-00000.092773,-00000.561523,-00000.024414,00000.014648,-00000.180664
0000000000913,00002.407227,00001.748047,00001.845703,00003.447266,00002.656250,00002.763672,00002.651367,00003.105469,00002.456055,00002.397461,-00000.581055,-00000.097656,-00000.561523,-00000.024414,00000.014648,-00000.185547
0000000000914,00002.412109,00001.748047,00001.845703,00003.442383,00002.661133,00002.763672,00002.646484,00003.100586,00002.451172,00002.397461,-00000.585938,-00000.092773,-00000.561523,-00000.024414,00000.014648,-00000.185547
0000000000915,00002.412109,00001.743164,00001.845703,00003.447266,00002.651367,00002.763672,00002.646484,00003.105469,00002.456055,00002.392578,-00000.590820,-00000.092773,-00000.566406,-00000.024414,00000.009766,-00000.185547
0000000000916,00002.412109,00001.743164,00001.845703,00003.447266,00002.656250,00002.768555,00002.646484,00003.105469,00002.451172,00002.397461,-00000.590820,-00000.092773,-00000.566406,-00000.024414,00000.009766,-00000.185547
0000000000917,00002.412109,00001.743164,00001.845703,00003.452148,00002.656250,00002.763672,00002.651367,00003.105469,00002.456055,00002.397461,-00000.595703,-00000.092773,-00000.561523,-00000.024414,00000.009766,-00000.185547
0000000000918,00002.407227,00001.748047,00001.845703,00003.447266,00002.656250,00002.763672,00002.651367,00003.100586,00002.460938,00002.392578,-00000.590820,-00000.092773,-00000.561523,-00000.019531,00000.009766,-00000.185547
0000000000919,00002.412109,00001.743164,00001.845703,00003.447266,00002.656250,00002.763672,00002.646484,00003.105469,00002.456055,00002.397461,-00000.590820,-00000.092773,-00000.561523,-00000.019531,00000.009766,-00000.185547
0000000000920,00002.407227,00001.743164,00001.840820,00003.447266,00002.656250,00002.763672,00002.651367,00003.100586,00002.456055,00002.392578,-00000.585938,-00000.092773,-00000.561523,-00000.019531,00000.009766,-00000.185547
0000000000921,00002.412109,00001.743164,00001.845703,00003.442383,00002.656250,00002.758789,00002.646484,00003.105469,00002.451172,00002.392578,-00000.576172,-00000.097656,-00000.561523,-00000.024414,00000.004883,-00000.185547
0000000000922,00002.412109,00001.743164,00001.845703,00003.442383,00002.656250,00002.763672,00002.641602,00003.105469,00002.451172,00002.397461,-00000.576172,-00000.097656,-00000.561523,-00000.024414,00000.000000,-00000.185547
0000000000923,00002.407227,00001.748047,00001.840820,00003.447266,00002.656250,00002.763672,00002.651367,00003.100586,00002.456055,00002.392578,-00000.571289,-00000.097656,-00000.566406,-00000.029297,00000.004883,-00000.180664
0000000000924,00002.412109,00001.743164,00001.845703,00003.447266,00002.656250,00002.768555,00002.646484,00003.105469,00002.456055,00002.397461,-00000.571289,-00000.097656,-00000.566406,-00000.029297,00000.004883,-00000.175781
0000000000925,00002.407227,00001.743164,00001.840820,00003.452148,00002.651367,00002.763672,00002.646484,00003.100586,00002.451172,00002.392578,-00000.566406,-00000.097656,-00000.566406,-00000.024414,00000.004883,-00000.180664
0000000000926,00002.407227,00001.743164,00001.840820,00003.452148,00002.656250,00002.768555,00002.651367,00003.105469,00002.456055,00002.392578,-00000.566406,-00000.097656,-00000.566406,-00000.029297,00000.000000,-00000.190430
0000000000927,00002.412109,00001.748047,00001.845703,00003.447266,00002.661133,00002.763672,00002.651367,00003.100586,00002.456055,00002.397461,-00000.566406,-00000.097656,-00000.566406,-00000.029297,00000.000000,-00000.190430
0000000000928,00002.412109,00001.743164,00001.845703,00003.442383,00002.656250,00002.763672,00002.651367,00003.105469,00002.456055,00002.397461,-00000.561523,-00000.097656,-00000.566406,-00000.029297,00000.000000,-00000.190430
0000000000929,00002.407227,00001.743164,00001.840820,00003.447266,00002.651367,00002.763672,00002.646484,00003.095703,00002.456055,00002.392578,-00000.561523,-00000.102539,-00000.566406,-00000.029297,00000.000000,-00000.185547
0000000000930,00002.407227,00001.743164,00001.840820,00003.447266,00002.656250,00002.763672,00002.646484,00003.100586,00002.456055,00002.392578,-00000.561523,-00000.102539,-00000.566406,-00000.029297,-00000.004883,-00000.185547
0000000000931,00002.407227,00001.743164,00001.840820,00003.447266,00002.651367,00002.763672,00002.646484,00003.100586,00002.456055,00002.392578,-00000.561523,-00000.102539,-00000.571289,-00000.029297,-00000.004883,-00000.185547
0000000000932,00002.412109,00001.743164,00001.845703,00003.447266,00002.651367,00002.768555,00002.646484,00003.105469,00002.451172,00002.397461,-00000.556641,-00000.102539,-00000.571289,-00000.034180,-00000.004883,-00000.185547
0000000000933,00002.407227,00001.748047,00001.840820,00003.447266,00002.656250,00002.763672,00002.651367,00003.100586,00002.456055,00002.392578,-00000.561523,-00000.102539,-00000.571289,-00000.034180,-00000.014648,-00000.185547
0000000000934,00002.407227,00001.748047,00001.840820,00003.452148,00002.656250,00002.763672,00002.646484,00003.100586,00002.456055,00002.392578,-00000.561523,-00000.102539,-00000.571289,-00000.039063,-00000.014648,-00000.180664
0000000000935,00002.407227,00001.743164,00001.845703,00003.442383,00002.656250,00002.758789,00002.646484,00003.100586,00002.451172,00002.392578,-00000.556641,-00000.102539,-00000.571289,-00000.039063,-00000.014648,-00000.180664
0000000000936,00002.412109,00001.743164,00001.840820,00003.447266,00002.651367,00002.763672,00002.646484,00003.105469,00002.456055,00002.397461,-00000.556641,-00000.102539,-00000.571289,-00000.034180,-00000.009766,-00000.185547
0000000000937,00002.412109,00001.743164,00001.845703,00003.442383,00002.656250,00002.758789,00002.646484,00003.100586,00002.451172,00002.397461,-00000.556641,-00000.102539,-00000.571289,-00000.034180,-00000.004883,-00000.185547
0000000000938,00002.407227,00001.743164,00001.845703,00003.447266,00002.656250,00002.763672,00002.646484,00003.100586,00002.451172,00002.397461,-00000.556641,-00000.102539,-00000.571289,-00000.034180,-00000.009766,-00000.185547
0000000000939,00002.407227,00001.748047,00001.845703,00003.452148,00002.656250,00002.768555,00002.651367,00003.105469,00002.456055,00002.392578,-00000.556641,-00000.102539,-00000.571289,-00000.034180,-00000.014648,-00000.185547
0000000000940,00002.412109,00001.743164,00001.845703,00003.452148,00002.656250,00002.768555,00002.646484,00003.105469,00002.456055,00002.392578,-00000.556641,-00000.107422,-00000.571289,-00000.034180,-00000.019531,-00000.180664
0000000000941,00002.412109,00001.748047,00001.845703,00003.447266,00002.661133,00002.763672,00002.651367,00003.105469,00002.456055,00002.397461,-00000.556641,-00000.107422,-00000.571289,-00000.034180,-00000.024414,-00000.180664
0000000000942,00002.407227,00001.748047,00001.840820,00003.452148,00002.656250,00002.768555,00002.651367,00003.100586,00002.456055,00002.392578,-00000.551758,-00000.102539,-00000.571289,-00000.034180,-00000.019531,-00000.180664
0000000000943,00002.407227,00001.748047,00001.840820,00003.447266,00002.656250,00002.763672,00002.651367,00003.100586,00002.456055,00002.392578,-00000.551758,-00000.102539,-00000.571289,-00000.034180,-00000.014648,-00000.180664
0000000000944,00002.412109,00001.748047,00001.840820,00003.452148,00002.656250,00002.768555,00002.646484,00003.095703,00002.451172,00002.392578,-00000.551758,-00000.107422,-00000.571289,-00000.034180,-00000.014648,-00000.180664
0000000000945,00002.412109,00001.748047,00001.840820,00003.452148,00002.651367,00002.768555,00002.646484,00003.100586,00002.456055,00002.392578,-00000.556641,-00000.107422,-00000.576172,-00000.034180,-00000.014648,-00000.180664
0000000000946,00002.412109,00001.743164,00001.845703,00003.457031,00002.656250,00002.768555,00002.646484,00003.105469,00002.456055,00002.397461,-00000.551758,-00000.102539,-00000.571289,-00000.039063,-00000.019531,-00000.180664
0000000000947,00002.412109,00001.743164,00001.845703,00003.447266,00002.661133,00002.763672,00002.646484,00003.105469,00002.451172,00002.397461,-00000.551758,-00000.107422,-00000.571289,-00000.039063,-00000.019531,-00000.180664
0000000000948,00002.416992,00001.743164,00001.845703,00003.457031,00002.651367,00002.763672,00002.641602,00003.100586,00002.451172,00002.392578,-00000.551758,-00000.107422,-00000.571289,-00000.034180,-00000.019531,-00000.180664
0000000000949,00002.412109,00001.748047,00001.840820,00003.457031,00002.656250,00002.768555,00002.651367,00003.100586,00002.456055,00002.397461,-00000.551758,-00000.102539,-00000.571289,-00000.034180,-00000.014648,-00000.180664
0000000000950,00002.416992,00001.743164,00001.845703,00003.457031,00002.656250,00002.768555,00002.646484,00003.105469,00002.451172,00002.397461,-00000.551758,-00000.102539,-00000.571289,-00000.034180,-00000.014648,-00000.180664
0000000000951,00002.412109,00001.748047,00001.840820,00003.457031,00002.656250,00002.768555,00002.651367,00003.100586,00002.456055,00002.392578,-00000.551758,-00000.102539,-00000.571289,-00000.034180,-00000.014648,-00000.175781
0000000000952,00002.416992,00001.743164,00001.845703,00003.457031,00002.656250,00002.768555,00002.646484,00003.105469,00002.456055,00002.397461,-00000.551758,-00000.107422,-00000.571289,-00000.034180,-00000.014648,-00000.175781
0000000000953,00002.416992,00001.743164,00001.845703,00003.457031,00002.656250,00002.768555,00002.646484,00003.105469,00002.451172,00002.397461,-00000.551758,-00000.107422,-00000.571289,-00000.034180,-00000.014648,-00000.175781
0000000000954,00002.412109,00001.748047,00001.845703,00003.461914,00002.661133,00002.768555,00002.656250,00003.100586,00002.460938,00002.397461,-00000.551758,-00000.107422,-00000.571289,-00000.034180,-00000.019531,-00000.175781
0000000000955,00002.412109,00001.748047,00001.845703,00003.461914,00002.656250,00002.768555,00002.651367,00003.100586,00002.456055,00002.397461,-00000.551758,-00000.102539,-00000.566406,-00000.034180,-00000.014648,-00000.175781
0000000000956,00002.416992,00001.743164,00001.850586,00003.457031,00002.661133,00002.763672,00002.651367,00003.105469,00002.456055,00002.397461,-00000.551758,-00000.102539,-00000.566406,-00000.034180,-00000.009766,-00000.175781
0000000000957,00002.412109,00001.748047,00001.845703,00003.461914,00002.656250,00002.768555,00002.646484,00003.100586,00002.456055,00002.392578,-00000.556641,-00000.102539,-00000.566406,-00000.034180,-00000.009766,-00000.175781
0000000000958,00002.416992,00001.748047,00001.850586,00003.461914,00002.656250,00002.768555,00002.646484,00003.105469,00002.456055,00002.392578,-00000.561523,-00000.107422,-00000.571289,-00000.034180,-00000.009766,-00000.175781
0000000000959,00002.416992,00001.748047,00001.845703,00003.461914,00002.656250,00002.768555,00002.646484,00003.105469,00002.456055,00002.397461,-00000.556641,-00000.107422,-00000.571289,-00000.034180,-00000.009766,-00000.175781
0000000000960,00002.412109,00001.743164,00001.845703,00003.452148,00002.661133,00002.763672,00002.651367,00003.100586,00002.456055,00002.397461,-00000.561523,-00000.102539,-00000.571289,-00000.034180,-00000.009766,-00000.170898
0000000000961,00002.407227,00001.748047,00001.840820,00003.447266,00002.656250,00002.763672,00002.651367,00003.100586,00002.456055,00002.397461,-00000.561523,-00000.107422,-00000.571289,-00000.034180,-00000.014648,-00000.175781
0000000000962,00002.412109,00001.743164,00001.840820,00003.452148,00002.656250,00002.768555,00002.646484,00003.105469,00002.456055,00002.397461,-00000.561523,-00000.107422,-00000.571289,-00000.034180,-00000.014648,-00000.175781
0000000000963,00002.407227,00001.743164,00001.840820,00003.447266,00002.661133,00002.763672,00002.651367,00003.105469,00002.451172,00002.397461,-00000.561523,-00000.107422,-00000.571289,-00000.034180,-00000.009766,-00000.175781
0000000000964,00002.407227,00001.743164,00001.840820,00003.447266,00002.651367,00002.763672,00002.646484,00003.095703,00002.451172,00002.392578,-00000.561523,-00000.107422,-00000.571289,-00000.034180,-00000.004883,-00000.170898
0000000000965,00002.407227,00001.743164,00001.840820,00003.447266,00002.661133,00002.763672,00002.651367,00003.105469,00002.451172,00002.397461,-00000.561523,-00000.107422,-00000.571289,-00000.034180,-00000.004883,-00000.170898
0000000000966,00002.407227,00001.743164,00001.840820,00003.452148,00002.651367,00002.763672,00002.646484,00003.100586,00002.451172,00002.392578,-00000.561523,-00000.107422,-00000.571289,-00000.034180,-00000.009766,-00000.170898
0000000000967,00002.407227,00001.743164,00001.845703,00003.447266,00002.661133,00002.768555,00002.646484,00003.105469,00002.451172,00002.397461,-00000.561523,-00000.102539,-00000.571289,-00000.034180,-00000.009766,-00000.170898
0000000000968,00002.407227,00001.743164,00001.840820,00003.447266,00002.656250,00002.758789,00002.651367,00003.100586,00002.451172,00002.397461,-00000.561523,-00000.107422,-00000.571289,-00000.034180,-00000.009766,-00000.175781
0000000000969,00002.412109,00001.743164,00001.840820,00003.457031,00002.656250,00002.768555,00002.646484,00003.105469,00002.451172,00002.397461,-00000.561523,-00000.107422,-00000.571289,-00000.034180,-00000.009766,-00000.175781
0000000000970,00002.407227,00001.743164,00001.840820,00003.447266,00002.656250,00002.763672,00002.651367,00003.100586,00002.456055,00002.392578,-00000.566406,-00000.107422,-00000.571289,-00000.034180,-00000.009766,-00000.175781
0000000000971,00002.407227,00001.738281,00001.840820,00003.447266,00002.656250,00002.763672,00002.646484,00003.100586,00002.451172,00002.397461,-00000.561523,-00000.102539,-00000.571289,-00000.034180,-00000.009766,-00000.175781
0000000000972,00002.412109,00001.738281,00001.840820,00003.452148,00002.651367,00002.763672,00002.646484,00003.100586,00002.451172,00002.397461,-00000.566406,-00000.102539,-00000.566406,-00000.034180,-00000.014648,-00000.175781
0000000000973,00002.407227,00001.743164,00001.840820,00003.447266,00002.656250,00002.763672,00002.651367,00003.100586,00002.456055,00002.397461,-00000.566406,-00000.102539,-00000.566406,-00000.034180,-00000.019531,-00000.175781
0000000000974,00002.407227,00001.743164,00001.840820,00003.452148,00002.656250,00002.763672,00002.651367,00003.100586,00002.456055,00002.397461,-00000.566406,-00000.102539,-00000.566406,-00000.034180,-00000.019531,-00000.175781
0000000000975,00002.407227,00001.738281,00001.840820,00003.447266,00002.656250,00002.763672,00002.651367,00003.100586,00002.451172,00002.397461,-00000.571289,-00000.102539,-00000.571289,-00000.034180,-00000.019531,-00000.175781
0000000000976,00002.407227,00001.743164,00001.840820,00003.447266,00002.661133,00002.758789,00002.651367,00003.100586,00002.451172,00002.397461,-00000.571289,-00000.102539,-00000.571289,-00000.039063,-00000.024414,-00000.175781
0000000000977,00002.416992,00001.743164,00001.845703,00003.457031,00002.656250,00002.768555,00002.651367,00003.105469,00002.451172,00002.397461,-00000.571289,-00000.107422,-00000.571289,-00000.034180,-00000.019531,-00000.175781
0000000000978,00002.412109,00001.743164,00001.845703,00003.452148,00002.656250,00002.763672,00002.646484,00003.105469,00002.451172,00002.397461,-00000.571289,-00000.102539,-00000.571289,-00000.034180,-00000.014648,-00000.175781
0000000000979,00002.407227,00001.738281,00001.840820,00003.447266,00002.656250,00002.763672,00002.646484,00003.100586,00002.451172,00002.397461,-00000.576172,-00000.102539,-00000.571289,-00000.034180,-00000.014648,-00000.175781
0000000000980,00002.407227,00001.738281,00001.840820,00003.447266,00002.661133,00002.763672,00002.646484,00003.105469,00002.451172,00002.397461,-00000.576172,-00000.107422,-00000.571289,-00000.034180,-00000.019531,-00000.180664
0000000000981,00002.407227,00001.743164,00001.840820,00003.452148,00002.651367,00002.763672,00002.646484,00003.100586,00002.451172,00002.392578,-00000.581055,-00000.102539,-00000.571289,-00000.039063,-00000.024414,-00000.175781
0000000000982,00002.407227,00001.743164,00001.840820,00003.452148,00002.656250,00002.758789,00002.646484,00003.095703,00002.456055,00002.392578,-00000.585938,-00000.102539,-00000.571289,-00000.039063,-00000.024414,-00000.175781
0000000000983,00002.407227,00001.743164,00001.845703,00003.447266,00002.661133,00002.763672,00002.646484,00003.105469,00002.451172,00002.397461,-00000.585938,-00000.102539,-00000.566406,-00000.034180,-00000.029297,-00000.175781
0000000000984,00002.412109,00001.738281,00001.840820,00003.447266,00002.656250,00002.763672,00002.646484,00003.105469,00002.451172,00002.397461,-00000.590820,-00000.102539,-00000.571289,-00000.034180,-00000.024414,-00000.180664
0000000000985,00002.412109,00001.738281,00001.840820,00003.447266,00002.656250,00002.763672,00002.646484,00003.105469,00002.451172,00002.397461,-00000.590820,-00000.102539,-00000.571289,-00000.034180,-00000.024414,-00000.180664
0000000000986,00002.412109,00001.738281,00001.845703,00003.447266,00002.656250,00002.763672,00002.646484,00003.105469,00002.451172,00002.397461,-00000.595703,-00000.102539,-00000.571289,-00000.034180,-00000.024414,-00000.180664
0000000000987,00002.407227,00001.738281,00001.840820,00003.442383,00002.656250,00002.763672,00002.646484,00003.100586,00002.451172,00002.397461,-00000.595703,-00000.107422,-00000.566406,-00000.039063,-00000.024414,-00000.180664
0000000000988,00002.407227,00001.743164,00001.840820,00003.442383,00002.661133,00002.758789,00002.651367,00003.100586,00002.451172,00002.397461,-00000.595703,-00000.102539,-00000.571289,-00000.039063,-00000.024414,-00000.175781
0000000000989,00002.407227,00001.743164,00001.840820,00003.452148,00002.656250,00002.763672,00002.646484,00003.100586,00002.456055,00002.392578,-00000.590820,-00000.102539,-00000.571289,-00000.039063,-00000.024414,-00000.175781
0000000000990,00002.407227,00001.748047,00001.840820,00003.442383,00002.656250,00002.758789,00002.651367,00003.100586,00002.451172,00002.397461,-00000.590820,-00000.102539,-00000.571289,-00000.034180,-00000.024414,-00000.175781
0000000000991,00002.412109,00001.743164,00001.845703,00003.447266,00002.656250,00002.763672,00002.646484,00003.105469,00002.451172,00002.397461,-00000.595703,-00000.102539,-00000.566406,-00000.034180,-00000.024414,-00000.180664
0000000000992,00002.407227,00001.743164,00001.840820,00003.442383,00002.656250,00002.758789,00002.651367,00003.100586,00002.456055,00002.397461,-00000.595703,-00000.102539,-00000.571289,-00000.034180,-00000.019531,-00000.180664
0000000000993,00002.407227,00001.743164,00001.840820,00003.452148,00002.656250,00002.763672,00002.651367,00003.100586,00002.456055,00002.392578,-00000.595703,-00000.102539,-00000.571289,-00000.034180,-00000.024414,-00000.175781
0000000000994,00002.412109,00001.743164,00001.845703,00003.442383,00002.656250,00002.763672,00002.646484,00003.105469,00002.451172,00002.397461,-00000.595703,-00000.102539,-00000.571289,-00000.034180,-00000.024414,-00000.175781
0000000000995,00002.412109,00001.743164,00001.845703,00003.447266,00002.651367,00002.763672,00002.641602,00003.105469,00002.451172,00002.397461,-00000.595703,-00000.102539,-00000.566406,-00000.034180,-00000.024414,-00000.175781
0000000000996,00002.412109,00001.743164,00001.840820,00003.447266,00002.651367,00002.763672,00002.646484,00003.105469,00002.451172,00002.397461,-00000.595703,-00000.102539,-00000.566406,-00000.034180,-00000.024414,-00000.175781
0000000000997,00002.407227,00001.743164,00001.840820,00003.447266,00002.651367,00002.763672,00002.646484,00003.100586,00002.451172,00002.392578,-00000.595703,-00000.102539,-00000.571289,-00000.034180,-00000.024414,-00000.180664
0000000000998,00002.412109,00001.743164,00001.845703,00003.442383,00002.656250,00002.763672,00002.646484,00003.105469,00002.451172,00002.397461,-00000.600586,-00000.102539,-00000.566406,-00000.034180,-00000.024414,-00000.180664
0000000000999,00002.412109,00001.743164,00001.845703,00003.442383,00002.661133,00002.763672,00002.651367,00003.105469,00002.451172,00002.397461,-00000.600586,-00000.102539,-00000.571289,-00000.034180,-00000.024414,-00000.175781
0000000001000,00002.412109,00001.743164,00001.845703,00003.442383,00002.656250,00002.763672,00002.646484,00003.105469,00002.451172,00002.397461,-00000.595703,-00000.102539,-00000.566406,-00000.034180,-00000.029297,-00000.175781
0000000001001,00002.412109,00001.743164,00001.845703,00003.447266,00002.656250,00002.768555,00002.646484,00003.105469,00002.456055,00002.402344,-00000.600586,-00000.102539,-00000.566406,-00000.034180,-00000.029297,-00000.175781
0000000001002,00002.412109,00001.743164,00001.845703,00003.447266,00002.656250,00002.763672,00002.646484,00003.105469,00002.451172,00002.397461,-00000.600586,-00000.102539,-00000.566406,-00000.034180,-00000.029297,-00000.175781
0000000001003,00002.412109,00001.743164,00001.840820,00003.447266,00002.651367,00002.768555,00002.646484,00003.100586,00002.456055,00002.392578,-00000.605469,-00000.102539,-00000.566406,-00000.034180,-00000.024414,-00000.180664
0000000001004,00002.412109,00001.743164,00001.845703,00003.447266,00002.656250,00002.763672,00002.646484,00003.105469,00002.451172,00002.397461,-00000.605469,-00000.102539,-00000.561523,-00000.034180,-00000.019531,-00000.175781
0000000001005,00002.407227,00001.748047,00001.840820,00003.447266,00002.656250,00002.758789,00002.646484,00003.095703,00002.456055,00002.392578,-00000.605469,-00000.097656,-00000.566406,-00000.029297,-00000.024414,-00000.180664
0000000001006,00002.407227,00001.743164,00001.845703,00003.442383,00002.656250,00002.763672,00002.651367,00003.100586,00002.451172,00002.397461,-00000.605469,-00000.097656,-00000.561523,-00000.034180,-00000.024414,-00000.180664
0000000001007,00002.402344,00001.748047,00001.840820,00003.442383,00002.656250,00002.758789,00002.646484,00003.100586,00002.451172,00002.392578,-00000.605469,-00000.097656,-00000.566406,-00000.029297,-00000.029297,-00000.180664
0000000001008,00002.412109,00001.743164,00001.840820,00003.447266,00002.651367,00002.763672,00002.646484,00003.100586,00002.451172,00002.392578,-00000.605469,-00000.102539,-00000.566406,-00000.034180,-00000.024414,-00000.180664
0000000001009,00002.407227,00001.738281,00001.845703,00003.447266,00002.656250,00002.763672,00002.646484,00003.105469,00002.446289,00002.397461,-00000.605469,-00000.097656,-00000.566406,-00000.029297,-00000.024414,-00000.175781
0000000001010,00002.402344,00001.738281,00001.840820,00003.442383,00002.656250,00002.763672,00002.646484,00003.105469,00002.446289,00002.402344,-00000.600586,-00000.097656,-00000.566406,-00000.029297,-00000.024414,-00000.175781
0000000001011,00002.402344,00001.738281,00001.840820,00003.447266,00002.651367,00002.758789,00002.641602,00003.105469,00002.446289,00002.397461,-00000.600586,-00000.097656,-00000.566406,-00000.029297,-00000.019531,-00000.175781
0000000001012,00002.402344,00001.738281,00001.840820,00003.447266,00002.651367,00002.758789,00002.641602,00003.100586,00002.446289,00002.397461,-00000.595703,-00000.097656,-00000.561523,-00000.029297,-00000.019531,-00000.175781
0000000001013,00002.397461,00001.738281,00001.840820,00003.442383,00002.656250,00002.749023,00002.651367,00003.100586,00002.446289,00002.397461,-00000.600586,-00000.097656,-00000.566406,-00000.029297,-00000.019531,-00000.175781
0000000001014,00002.402344,00001.738281,00001.840820,00003.447266,00002.651367,00002.749023,00002.646484,00003.095703,00002.446289,00002.392578,-00000.595703,-00000.097656,-00000.561523,-00000.029297,-00000.024414,-00000.175781
0000000001015,00002.402344,00001.738281,00001.840820,00003.447266,00002.651367,00002.753906,00002.646484,00003.105469,00002.446289,00002.392578,-00000.595703,-00000.102539,-00000.561523,-00000.029297,-00000.019531,-00000.175781
0000000001016,00002.402344,00001.738281,00001.840820,00003.447266,00002.651367,00002.753906,00002.646484,00003.105469,00002.446289,00002.392578,-00000.595703,-00000.097656,-00000.561523,-00000.024414,-00000.019531,-00000.175781
0000000001017,00002.402344,00001.738281,00001.840820,00003.442383,00002.656250,00002.749023,00002.646484,00003.100586,00002.441406,00002.392578,-00000.595703,-00000.097656,-00000.561523,-00000.029297,-00000.019531,-00000.175781
0000000001018,00002.397461,00001.743164,00001.840820,00003.447266,00002.656250,00002.749023,00002.651367,00003.100586,00002.451172,00002.392578,-00000.595703,-00000.097656,-00000.561523,-00000.029297,-00000.024414,-00000.175781
0000000001019,00002.397461,00001.743164,00001.835938,00003.447266,00002.651367,00002.749023,00002.646484,00003.095703,00002.446289,00002.392578,-00000.595703,-00000.097656,-00000.561523,-00000.029297,-00000.024414,-00000.175781
0000000001020,00002.397461,00001.743164,00001.840820,00003.452148,00002.651367,00002.753906,00002.651367,00003.100586,00002.451172,00002.392578,-00000.595703,-00000.097656,-00000.566406,-00000.029297,-00000.019531,-00000.175781
0000000001021,00002.397461,00001.738281,00001.840820,00003.442383,00002.656250,00002.749023,00002.651367,00003.100586,00002.451172,00002.392578,-00000.595703,-00000.097656,-00000.566406,-00000.029297,-00000.019531,-00000.175781
0000000001022,00002.402344,00001.738281,00001.840820,00003.442383,00002.656250,00002.749023,00002.646484,00003.105469,00002.446289,00002.397461,-00000.595703,-00000.102539,-00000.566406,-00000.029297,-00000.019531,-00000.175781
0000000001023,00002.397461,00001.738281,00001.835938,00003.447266,00002.651367,00002.749023,00002.651367,00003.100586,00002.451172,00002.392578,-00000.595703,-00000.097656,-00000.566406,-00000.029297,-00000.019531,-00000.175781
0000000001024,00002.402344,00001.743164,00001.840820,00003.447266,00002.656250,00002.749023,00002.651367,00003.100586,00002.451172,00002.392578,-00000.600586,-00000.102539,-00000.566406,-00000.029297,-00000.024414,-00000.175781
0000000001025,00002.407227,00001.738281,00001.840820,00003.447266,00002.651367,00002.753906,00002.646484,00003.100586,00002.446289,00002.392578,-00000.600586,-00000.102539,-00000.566406,-00000.029297,-00000.019531,-00000.175781
0000000001026,00002.402344,00001.738281,00001.845703,00003.442383,00002.656250,00002.749023,00002.646484,00003.105469,00002.446289,00002.397461,-00000.605469,-00000.102539,-00000.566406,-00000.029297,-00000.019531,-00000.175781
0000000001027,00002.402344,00001.738281,00001.840820,00003.447266,00002.651367,00002.749023,00002.641602,00003.100586,00002.446289,00002.392578,-00000.605469,-00000.102539,-00000.566406,-00000.029297,-00000.019531,-00000.175781
0000000001028,00002.402344,00001.738281,00001.840820,00003.447266,00002.651367,00002.749023,00002.641602,00003.105469,00002.446289,00002.392578,-00000.605469,-00000.097656,-00000.561523,-00000.029297,-00000.014648,-00000.175781
0000000001029,00002.402344,00001.743164,00001.840820,00003.447266,00002.651367,00002.749023,00002.646484,00003.100586,00002.446289,00002.392578,-00000.605469,-00000.097656,-00000.561523,-00000.029297,-00000.019531,-00000.175781
0000000001030,00002.397461,00001.738281,00001.835938,00003.442383,00002.651367,00002.744141,00002.646484,00003.095703,00002.446289,00002.387695,-00000.610352,-00000.097656,-00000.566406,-00000.029297,-00000.019531,-00000.175781
0000000001031,00002.397461,00001.743164,00001.835938,00003.447266,00002.651367,00002.749023,00002.651367,00003.100586,00002.446289,00002.387695,-00000.610352,-00000.097656,-00000.561523,-00000.029297,-00000.024414,-00000.175781
0000000001032,00002.402344,00001.738281,00001.840820,00003.447266,00002.651367,00002.749023,00002.646484,00003.100586,00002.446289,00002.392578,-00000.615234,-00000.097656,-00000.561523,-00000.029297,-00000.024414,-00000.170898
0000000001033,00002.402344,00001.738281,00001.840820,00003.447266,00002.651367,00002.758789,00002.646484,00003.105469,00002.446289,00002.392578,-00000.615234,-00000.097656,-00000.561523,-00000.029297,-00000.024414,-00000.170898
0000000001034,00002.402344,00001.738281,00001.840820,00003.447266,00002.651367,00002.758789,00002.646484,00003.105469,00002.446289,00002.392578,-00000.615234,-00000.097656,-00000.561523,-00000.029297,-00000.024414,-00000.170898
0000000001035,00002.397461,00001.738281,00001.835938,00003.447266,00002.651367,00002.758789,00002.646484,00003.100586,00002.451172,00002.392578,-00000.615234,-00000.097656,-00000.566406,-00000.029297,-00000.029297,-00000.170898
0000000001036,00002.402344,00001.743164,00001.840820,00003.447266,00002.656250,00002.758789,00002.651367,00003.100586,00002.451172,00002.392578,-00000.610352,-00000.097656,-00000.561523,-00000.029297,-00000.029297,-00000.170898
0000000001037,00002.402344,00001.738281,00001.840820,00003.447266,00002.651367,00002.763672,00002.646484,00003.105469,00002.446289,00002.392578,-00000.615234,-00000.097656,-00000.566406,-00000.029297,-00000.019531,-00000.170898
0000000001038,00002.397461,00001.738281,00001.840820,00003.442383,00002.656250,00002.758789,00002.651367,00003.100586,00002.446289,00002.392578,-00000.620117,-00000.097656,-00000.561523,-00000.029297,-00000.014648,-00000.170898
0000000001039,00002.402344,00001.733398,00001.840820,00003.442383,00002.651367,00002.758789,00002.641602,00003.100586,00002.441406,00002.392578,-00000.620117,-00000.097656,-00000.561523,-00000.029297,-00000.019531,-00000.166016
0000000001040,00002.402344,00001.733398,00001.840820,00003.442383,00002.656250,00002.758789,00002.641602,00003.105469,00002.446289,00002.392578,-00000.625000,-00000.092773,-00000.561523,-00000.029297,-00000.024414,-00000.166016
0000000001041,00002.397461,00001.738281,00001.840820,00003.447266,00002.651367,00002.758789,00002.646484,00003.100586,00002.446289,00002.387695,-00000.629883,-00000.097656,-00000.561523,-00000.029297,-00000.024414,-00000.166016
0000000001042,00002.397461,00001.738281,00001.840820,00003.447266,00002.656250,00002.758789,00002.651367,00003.100586,00002.451172,00002.392578,-00000.639648,-00000.097656,-00000.561523,-00000.029297,-00000.024414,-00000.161133
0000000001043,00002.397461,00001.738281,00001.840820,00003.442383,00002.656250,00002.758789,00002.651367,00003.105469,00002.446289,00002.392578,-00000.649414,-00000.092773,-00000.556641,-00000.029297,-00000.024414,-00000.166016
0000000001044,00002.397461,00001.738281,00001.840820,00003.437500,00002.656250,00002.744141,00002.646484,00003.100586,00002.451172,00002.392578,-00000.664063,-00000.092773,-00000.556641,-00000.029297,-00000.029297,-00000.166016
0000000001045,00002.397461,00001.738281,00001.835938,00003.447266,00002.651367,00002.758789,00002.646484,00003.100586,00002.446289,00002.382813,-00000.678711,-00000.092773,-00000.556641,-00000.029297,-00000.034180,-00000.161133
0000000001046,00002.402344,00001.733398,00001.840820,00003.437500,00002.646484,00002.758789,00002.641602,00003.100586,00002.441406,00002.377930,-00000.703125,-00000.087891,-00000.551758,-00000.029297,-00000.034180,-00000.161133
0000000001047,00002.402344,00001.733398,00001.840820,00003.437500,00002.656250,00002.758789,00002.646484,00003.105469,00002.441406,00002.373047,-00000.737305,-00000.087891,-00000.551758,-00000.024414,-00000.039063,-00000.170898
0000000001048,00002.392578,00001.733398,00001.831055,00003.437500,00002.651367,00002.753906,00002.641602,00003.095703,00002.441406,00002.363281,-00000.761719,-00000.087891,-00000.546875,-00000.029297,-00000.043945,-00000.166016
0000000001049,00002.397461,00001.728516,00001.840820,00003.432617,00002.651367,00002.758789,00002.641602,00003.105469,00002.436523,00002.363281,-00000.791016,-00000.087891,-00000.546875,-00000.024414,-00000.043945,-00000.166016
0000000001050,00002.397461,00001.728516,00001.835938,00003.427734,00002.651367,00002.749023,00002.646484,00003.105469,00002.431641,00002.363281,-00000.830078,-00000.087891,-00000.546875,-00000.024414,-00000.048828,-00000.170898
0000000001051,00002.392578,00001.728516,00001.831055,00003.432617,00002.646484,00002.744141,00002.636719,00003.100586,00002.436523,00002.338867,-00000.874023,-00000.073242,-00000.537109,-00000.014648,-00000.063477,-00000.175781
0000000001052,00002.392578,00001.718750,00001.831055,00003.422852,00002.646484,00002.734375,00002.631836,00003.095703,00002.426758,00002.319336,-00000.908203,-00000.073242,-00000.532227,-00000.009766,-00000.073242,-00000.180664
0000000001053,00002.392578,00001.713867,00001.826172,00003.422852,00002.646484,00002.739258,00002.631836,00003.105469,00002.426758,00002.314453,-00000.942383,-00000.068359,-00000.532227,-00000.014648,-00000.078125,-00000.175781
0000000001054,00002.392578,00001.708984,00001.821289,00003.422852,00002.641602,00002.734375,00002.626953,00003.100586,00002.421875,00002.304688,-00000.966797,-00000.068359,-00000.532227,-00000.014648,-00000.078125,-00000.170898
0000000001055,00002.382813,00001.708984,00001.816406,00003.417969,00002.641602,00002.729492,00002.631836,00003.095703,00002.421875,00002.294922,-00001.010742,-00000.073242,-00000.532227,-00000.009766,-00000.073242,-00000.166016
0000000001056,00002.387695,00001.699219,00001.816406,00003.413086,00002.641602,00002.729492,00002.626953,00003.095703,00002.421875,00002.294922,-00001.044922,-00000.068359,-00000.527344,-00000.004883,-00000.073242,-00000.166016
0000000001057,00002.382813,00001.694336,00001.816406,00003.413086,00002.641602,00002.724609,00002.631836,00003.100586,00002.421875,00002.290039,-00001.088867,-00000.068359,-00000.522461,-00000.004883,-00000.078125,-00000.170898
0000000001058,00002.387695,00001.689453,00001.816406,00003.417969,00002.631836,00002.729492,00002.622070,00003.100586,00002.416992,00002.280273,-00001.132813,-00000.068359,-00000.522461,-00000.004883,-00000.078125,-00000.175781
0000000001059,00002.382813,00001.684570,00001.811523,00003.417969,00002.631836,00002.719727,00002.622070,00003.095703,00002.416992,00002.275391,-00001.171875,-00000.068359,-00000.517578,00000.000000,-00000.083008,-00000.185547
0000000001060,00002.382813,00001.684570,00001.801758,00003.413086,00002.631836,00002.695313,00002.622070,00003.095703,00002.416992,00002.270508,-00001.225586,-00000.068359,-00000.517578,00000.000000,-00000.083008,-00000.195313
0000000001061,00002.382813,00001.674805,00001.801758,00003.398438,00002.631836,00002.661133,00002.617188,00003.095703,00002.407227,00002.260742,-00001.289063,-00000.073242,-00000.517578,00000.000000,-00000.083008,-00000.200195
0000000001062,00002.377930,00001.674805,00001.801758,00003.393555,00002.626953,00002.661133,00002.617188,00003.100586,00002.402344,00002.246094,-00001.381836,-00000.073242,-00000.512695,00000.004883,-00000.087891,-00000.209961
0000000001063,00002.373047,00001.669922,00001.801758,00003.393555,00002.626953,00002.661133,00002.617188,00003.100586,00002.402344,00002.236328,-00001.430664,-00000.073242,-00000.507813,00000.004883,-00000.092773,-00000.219727
0000000001064,00002.373047,00001.669922,00001.796875,00003.393555,00002.626953,00002.656250,00002.617188,00003.095703,00002.402344,00002.221680,-00001.474609,-00000.073242,-00000.507813,00000.009766,-00000.097656,-00000.224609
0000000001065,00002.373047,00001.669922,00001.791992,00003.388672,00002.617188,00002.656250,00002.612305,00003.095703,00002.397461,00002.207031,-00001.523438,-00000.078125,-00000.507813,00000.009766,-00000.102539,-00000.229492
0000000001066,00002.368164,00001.665039,00001.787109,00003.388672,00002.617188,00002.656250,00002.612305,00003.090820,00002.392578,00002.197266,-00001.572266,-00000.078125,-00000.507813,00000.014648,-00000.102539,-00000.234375
0000000001067,00002.363281,00001.665039,00001.782227,00003.383789,00002.617188,00002.646484,00002.612305,00003.095703,00002.397461,00002.187500,-00001.635742,-00000.087891,-00000.507813,00000.019531,-00000.102539,-00000.249023
0000000001068,00002.368164,00001.660156,00001.787109,00003.374023,00002.622070,00002.646484,00002.612305,00003.095703,00002.387695,00002.182617,-00001.689453,-00000.092773,-00000.512695,00000.019531,-00000.102539,-00000.258789
0000000001069,00002.358398,00001.660156,00001.777344,00003.359375,00002.612305,00002.646484,00002.612305,00003.095703,00002.392578,00002.177734,-00001.728516,-00000.097656,-00000.512695,00000.019531,-00000.097656,-00000.263672
0000000001070,00002.363281,00001.660156,00001.777344,00003.359375,00002.617188,00002.641602,00002.612305,00003.095703,00002.392578,00002.172852,-00001.738281,-00000.102539,-00000.522461,00000.014648,-00000.102539,-00000.263672
0000000001071,00002.363281,00001.660156,00001.777344,00003.349609,00002.617188,00002.636719,00002.612305,00003.095703,00002.387695,00002.167969,-00001.762695,-00000.102539,-00000.517578,00000.019531,-00000.102539,-00000.268555
0000000001072,00002.363281,00001.655273,00001.782227,00003.349609,00002.617188,00002.631836,00002.607422,00003.100586,00002.382813,00002.163086,-00001.777344,-00000.107422,-00000.522461,00000.019531,-00000.102539,-00000.268555
0000000001073,00002.363281,00001.655273,00001.777344,00003.354492,00002.612305,00002.631836,00002.607422,00003.095703,00002.387695,00002.163086,-00001.777344,-00000.112305,-00000.532227,00000.019531,-00000.092773,-00000.253906
0000000001074,00002.358398,00001.655273,00001.777344,00003.349609,00002.617188,00002.631836,00002.607422,00003.100586,00002.382813,00002.158203,-00001.791992,-00000.122070,-00000.532227,00000.019531,-00000.087891,-00000.244141
0000000001075,00002.363281,00001.655273,00001.777344,00003.344727,00002.617188,00002.626953,00002.607422,00003.100586,00002.382813,00002.153320,-00001.796875,-00000.122070,-00000.532227,00000.014648,-00000.083008,-00000.234375
0000000001076,00002.358398,00001.660156,00001.777344,00003.339844,00002.612305,00002.626953,00002.612305,00003.095703,00002.387695,00002.148438,-00001.782227,-00000.122070,-00000.537109,00000.014648,-00000.087891,-00000.229492
0000000001077,00002.358398,00001.660156,00001.777344,00003.344727,00002.612305,00002.626953,00002.612305,00003.095703,00002.387695,00002.143555,-00001.762695,-00000.126953,-00000.537109,00000.009766,-00000.087891,-00000.224609
0000000001078,00002.358398,00001.660156,00001.777344,00003.339844,00002.622070,00002.626953,00002.612305,00003.095703,00002.382813,00002.148438,-00001.733398,-00000.126953,-00000.546875,00000.009766,-00000.083008,-00000.219727
0000000001079,00002.363281,00001.660156,00001.782227,00003.344727,00002.617188,00002.631836,00002.612305,00003.100586,00002.387695,00002.143555,-00001.699219,-00000.131836,-00000.551758,00000.004883,-00000.068359,-00000.214844
0000000001080,00002.368164,00001.665039,00001.782227,00003.344727,00002.612305,00002.631836,00002.607422,00003.100586,00002.382813,00002.143555,-00001.689453,-00000.131836,-00000.551758,00000.009766,-00000.063477,-00000.209961
0000000001081,00002.363281,00001.665039,00001.782227,00003.339844,00002.617188,00002.631836,00002.612305,00003.100586,00002.387695,00002.143555,-00001.679688,-00000.131836,-00000.551758,00000.004883,-00000.063477,-00000.205078
0000000001082,00002.368164,00001.665039,00001.782227,00003.344727,00002.617188,00002.636719,00002.612305,00003.100586,00002.387695,00002.143555,-00001.674805,-00000.131836,-00000.551758,00000.000000,-00000.078125,-00000.205078
0000000001083,00002.363281,00001.665039,00001.777344,00003.344727,00002.612305,00002.631836,00002.612305,00003.095703,00002.387695,00002.138672,-00001.660156,-00000.126953,-00000.546875,00000.004883,-00000.087891,-00000.200195
0000000001084,00002.358398,00001.665039,00001.777344,00003.339844,00002.612305,00002.626953,00002.612305,00003.090820,00002.387695,00002.138672,-00001.650391,-00000.126953,-00000.551758,00000.000000,-00000.092773,-00000.200195
0000000001085,00002.368164,00001.665039,00001.782227,00003.339844,00002.612305,00002.631836,00002.607422,00003.100586,00002.382813,00002.143555,-00001.650391,-00000.126953,-00000.551758,00000.004883,-00000.092773,-00000.200195
0000000001086,00002.368164,00001.665039,00001.782227,00003.334961,00002.617188,00002.626953,00002.612305,00003.100586,00002.387695,00002.143555,-00001.665039,-00000.122070,-00000.546875,00000.004883,-00000.092773,-00000.200195
0000000001087,00002.368164,00001.665039,00001.782227,00003.344727,00002.617188,00002.631836,00002.612305,00003.100586,00002.387695,00002.143555,-00001.665039,-00000.122070,-00000.541992,00000.004883,-00000.092773,-00000.195313
0000000001088,00002.368164,00001.669922,00001.777344,00003.344727,00002.617188,00002.631836,00002.612305,00003.095703,00002.382813,00002.143555,-00001.660156,-00000.122070,-00000.541992,00000.000000,-00000.092773,-00000.190430
0000000001089,00002.373047,00001.665039,00001.782227,00003.344727,00002.617188,00002.631836,00002.612305,00003.100586,00002.382813,00002.143555,-00001.655273,-00000.122070,-00000.541992,00000.000000,-00000.092773,-00000.190430
0000000001090,00002.368164,00001.665039,00001.782227,00003.339844,00002.617188,00002.626953,00002.612305,00003.100586,00002.382813,00002.143555,-00001.645508,-00000.126953,-00000.546875,00000.000000,-00000.092773,-00000.185547
0000000001091,00002.373047,00001.665039,00001.777344,00003.334961,00002.617188,00002.626953,00002.612305,00003.095703,00002.382813,00002.138672,-00001.645508,-00000.131836,-00000.551758,00000.000000,-00000.083008,-00000.185547
0000000001092,00002.368164,00001.669922,00001.777344,00003.339844,00002.617188,00002.626953,00002.612305,00003.095703,00002.387695,00002.143555,-00001.650391,-00000.131836,-00000.551758,00000.000000,-00000.073242,-00000.190430
0000000001093,00002.377930,00001.665039,00001.782227,00003.339844,00002.617188,00002.631836,00002.612305,00003.100586,00002.387695,00002.143555,-00001.660156,-00000.131836,-00000.551758,00000.004883,-00000.073242,-00000.195313
0000000001094,00002.377930,00001.669922,00001.777344,00003.344727,00002.617188,00002.631836,00002.612305,00003.095703,00002.387695,00002.138672,-00001.674805,-00000.131836,-00000.546875,00000.004883,-00000.078125,-00000.200195
0000000001095,00002.382813,00001.669922,00001.782227,00003.339844,00002.617188,00002.631836,00002.612305,00003.100586,00002.382813,00002.138672,-00001.684570,-00000.126953,-00000.546875,00000.004883,-00000.087891,-00000.205078
0000000001096,00002.377930,00001.669922,00001.782227,00003.339844,00002.622070,00002.626953,00002.612305,00003.100586,00002.387695,00002.143555,-00001.699219,-00000.131836,-00000.551758,00000.000000,-00000.087891,-00000.209961
0000000001097,00002.373047,00001.669922,00001.777344,00003.334961,00002.617188,00002.622070,00002.617188,00003.100586,00002.387695,00002.138672,-00001.713867,-00000.131836,-00000.551758,00000.000000,-00000.083008,-00000.209961
0000000001098,00002.377930,00001.669922,00001.777344,00003.334961,00002.622070,00002.626953,00002.612305,00003.100586,00002.387695,00002.138672,-00001.728516,-00000.136719,-00000.551758,-00000.004883,-00000.078125,-00000.209961
0000000001099,00002.377930,00001.665039,00001.777344,00003.334961,00002.622070,00002.622070,00002.617188,00003.100586,00002.382813,00002.138672,-00001.743164,-00000.136719,-00000.551758,-00000.004883,-00000.073242,-00000.209961
0000000001100,00002.377930,00001.665039,00001.782227,00003.330078,00002.617188,00002.622070,00002.607422,00003.100586,00002.377930,00002.133789,-00001.752930,-00000.136719,-00000.551758,-00000.004883,-00000.068359,-00000.219727
0000000001101,00002.377930,00001.669922,00001.777344,00003.339844,00002.617188,00002.626953,00002.612305,00003.095703,00002.387695,00002.133789,-00001.757813,-00000.141602,-00000.551758,00000.000000,-00000.068359,-00000.229492
0000000001102,00002.373047,00001.665039,00001.777344,00003.339844,00002.612305,00002.626953,00002.612305,00003.095703,00002.387695,00002.128906,-00001.772461,-00000.136719,-00000.551758,00000.000000,-00000.063477,-00000.229492
0000000001103,00002.368164,00001.665039,00001.777344,00003.339844,00002.617188,00002.626953,00002.612305,00003.100586,00002.382813,00002.128906,-00001.796875,-00000.141602,-00000.546875,00000.000000,-00000.063477,-00000.224609
0000000001104,00002.363281,00001.665039,00001.772461,00003.330078,00002.617188,00002.612305,00002.612305,00003.095703,00002.382813,00002.124023,-00001.821289,-00000.141602,-00000.546875,00000.000000,-00000.068359,-00000.219727
0000000001105,00002.368164,00001.665039,00001.772461,00003.339844,00002.612305,00002.617188,00002.612305,00003.100586,00002.382813,00002.128906,-00001.840820,-00000.141602,-00000.551758,00000.000000,-00000.078125,-00000.224609
0000000001106,00002.368164,00001.665039,00001.772461,00003.334961,00002.612305,00002.617188,00002.607422,00003.100586,00002.382813,00002.124023,-00001.845703,-00000.141602,-00000.551758,00000.000000,-00000.078125,-00000.229492
0000000001107,00002.363281,00001.665039,00001.772461,00003.325195,00002.617188,00002.607422,00002.612305,00003.100586,00002.382813,00002.124023,-00001.835938,-00000.146484,-00000.556641,-00000.004883,-00000.073242,-00000.229492
0000000001108,00002.368164,00001.660156,00001.772461,00003.330078,00002.607422,00002.612305,00002.607422,00003.100586,00002.382813,00002.124023,-00001.831055,-00000.146484,-00000.561523,00000.000000,-00000.058594,-00000.229492
0000000001109,00002.368164,00001.669922,00001.772461,00003.334961,00002.617188,00002.607422,00002.617188,00003.100586,00002.382813,00002.124023,-00001.860352,-00000.151367,-00000.561523,00000.004883,-00000.039063,-00000.224609
0000000001110,00002.368164,00001.665039,00001.772461,00003.330078,00002.607422,00002.602539,00002.612305,00003.095703,00002.382813,00002.119141,-00001.889648,-00000.151367,-00000.556641,00000.004883,-00000.039063,-00000.224609
0000000001111,00002.363281,00001.660156,00001.772461,00003.330078,00002.607422,00002.597656,00002.612305,00003.100586,00002.382813,00002.114258,-00001.909180,-00000.146484,-00000.556641,00000.004883,-00000.043945,-00000.224609
0000000001112,00002.368164,00001.660156,00001.772461,00003.325195,00002.607422,00002.592773,00002.607422,00003.100586,00002.377930,00002.114258,-00001.918945,-00000.151367,-00000.556641,00000.004883,-00000.048828,-00000.229492
0000000001113,00002.363281,00001.660156,00001.772461,00003.315430,00002.612305,00002.583008,00002.612305,00003.095703,00002.377930,00002.109375,-00001.923828,-00000.151367,-00000.561523,00000.004883,-00000.043945,-00000.224609
0000000001114,00002.363281,00001.660156,00001.767578,00003.320313,00002.607422,00002.587891,00002.607422,00003.095703,00002.377930,00002.104492,-00001.928711,-00000.156250,-00000.561523,00000.004883,-00000.039063,-00000.224609
0000000001115,00002.368164,00001.669922,00001.772461,00003.325195,00002.612305,00002.583008,00002.617188,00003.100586,00002.382813,00002.109375,-00001.938477,-00000.156250,-00000.561523,00000.004883,-00000.039063,-00000.224609
0000000001116,00002.358398,00001.660156,00001.767578,00003.305664,00002.612305,00002.583008,00002.612305,00003.095703,00002.377930,00002.104492,-00001.958008,-00000.151367,-00000.561523,00000.004883,-00000.039063,-00000.224609
0000000001117,00002.363281,00001.665039,00001.767578,00003.310547,00002.607422,00002.583008,00002.612305,00003.095703,00002.377930,00002.104492,-00001.997070,-00000.156250,-00000.556641,00000.004883,-00000.043945,-00000.224609
0000000001118,00002.358398,00001.665039,00001.767578,00003.315430,00002.612305,00002.578125,00002.617188,00003.095703,00002.377930,00002.099609,-00002.026367,-00000.151367,-00000.551758,00000.009766,-00000.053711,-00000.224609
0000000001119,00002.368164,00001.660156,00001.772461,00003.315430,00002.607422,00002.583008,00002.612305,00003.100586,00002.373047,00002.104492,-00002.036133,-00000.156250,-00000.556641,00000.009766,-00000.053711,-00000.224609
0000000001120,00002.368164,00001.665039,00001.767578,00003.315430,00002.607422,00002.578125,00002.612305,00003.095703,00002.373047,00002.104492,-00002.041016,-00000.161133,-00000.561523,00000.004883,-00000.048828,-00000.219727
0000000001121,00002.368164,00001.665039,00001.772461,00003.310547,00002.612305,00002.578125,00002.612305,00003.100586,00002.373047,00002.104492,-00002.036133,-00000.166016,-00000.566406,00000.004883,-00000.043945,-00000.219727
0000000001122,00002.368164,00001.665039,00001.772461,00003.305664,00002.612305,00002.578125,00002.617188,00003.100586,00002.368164,00002.104492,-00002.050781,-00000.166016,-00000.561523,00000.004883,-00000.043945,-00000.224609
0000000001123,00002.368164,00001.665039,00001.772461,00003.305664,00002.607422,00002.578125,00002.612305,00003.105469,00002.294922,00002.099609,-00002.065430,-00000.166016,-00000.561523,00000.009766,-00000.039063,-00000.224609
0000000001124,00002.368164,00001.665039,00001.767578,00003.310547,00002.607422,00002.578125,00002.612305,00003.100586,00002.299805,00002.094727,-00002.075195,-00000.170898,-00000.566406,00000.009766,-00000.039063,-00000.219727
0000000001125,00002.363281,00001.665039,00001.767578,00003.315430,00002.607422,00002.573242,00002.617188,00003.095703,00002.299805,00002.094727,-00002.099609,-00000.170898,-00000.561523,00000.014648,-00000.039063,-00000.224609
0000000001126,00002.363281,00001.660156,00001.772461,00003.305664,00002.607422,00002.573242,00002.612305,00003.100586,00002.294922,00002.094727,-00002.109375,-00000.166016,-00000.561523,00000.014648,-00000.048828,-00000.229492
0000000001127,00002.363281,00001.665039,00001.772461,00003.300781,00002.612305,00002.573242,00002.617188,00003.100586,00002.294922,00002.094727,-00002.119141,-00000.166016,-00000.561523,00000.014648,-00000.058594,-00000.234375
0000000001128,00002.368164,00001.665039,00001.772461,00003.305664,00002.607422,00002.573242,00002.612305,00003.105469,00002.299805,00002.094727,-00002.119141,-00000.170898,-00000.561523,00000.009766,-00000.058594,-00000.234375
0000000001129,00002.368164,00001.665039,00001.772461,00003.300781,00002.607422,00002.573242,00002.612305,00003.100586,00002.294922,00002.089844,-00002.128906,-00000.170898,-00000.566406,00000.009766,-00000.043945,-00000.229492
0000000001130,00002.363281,00001.660156,00001.772461,00003.305664,00002.607422,00002.573242,00002.612305,00003.100586,00002.294922,00002.089844,-00002.114258,-00000.175781,-00000.571289,00000.014648,-00000.034180,-00000.229492
0000000001131,00002.363281,00001.665039,00001.767578,00003.300781,00002.607422,00002.568359,00002.617188,00003.095703,00002.299805,00002.089844,-00002.104492,-00000.175781,-00000.571289,00000.014648,-00000.029297,-00000.229492
0000000001132,00002.363281,00001.665039,00001.767578,00003.300781,00002.607422,00002.573242,00002.617188,00003.095703,00002.299805,00002.089844,-00002.104492,-00000.175781,-00000.576172,00000.014648,-00000.024414,-00000.229492
0000000001133,00002.368164,00001.669922,00001.772461,00003.305664,00002.607422,00002.578125,00002.617188,00003.100586,00002.294922,00002.089844,-00002.109375,-00000.175781,-00000.576172,00000.014648,-00000.024414,-00000.224609
0000000001134,00002.368164,00001.665039,00001.772461,00003.305664,00002.607422,00002.573242,00002.617188,00003.105469,00002.294922,00002.089844,-00002.119141,-00000.175781,-00000.571289,00000.014648,-00000.019531,-00000.219727
0000000001135,00002.368164,00001.665039,00001.772461,00003.300781,00002.612305,00002.573242,00002.617188,00003.100586,00002.294922,00002.094727,-00002.114258,-00000.175781,-00000.571289,00000.014648,-00000.014648,-00000.214844
0000000001136,00002.368164,00001.665039,00001.767578,00003.300781,00002.607422,00002.573242,00002.617188,00003.095703,00002.294922,00002.084961,-00002.109375,-00000.175781,-00000.576172,00000.014648,-00000.019531,-00000.219727
0000000001137,00002.368164,00001.669922,00001.772461,00003.300781,00002.612305,00002.573242,00002.622070,00003.095703,00002.299805,00002.089844,-00002.094727,-00000.180664,-00000.576172,00000.014648,-00000.019531,-00000.229492
0000000001138,00002.373047,00001.669922,00001.767578,00003.305664,00002.612305,00002.573242,00002.622070,00003.100586,00002.299805,00002.094727,-00002.080078,-00000.180664,-00000.581055,00000.014648,-00000.009766,-00000.229492
0000000001139,00002.373047,00001.665039,00001.772461,00003.291016,00002.612305,00002.568359,00002.617188,00003.095703,00002.294922,00002.094727,-00002.080078,-00000.180664,-00000.581055,00000.019531,-00000.004883,-00000.229492
0000000001140,00002.377930,00001.665039,00001.772461,00003.295898,00002.607422,00002.573242,00002.617188,00003.100586,00002.294922,00002.094727,-00002.094727,-00000.180664,-00000.581055,00000.014648,-00000.014648,-00000.224609
0000000001141,00002.377930,00001.669922,00001.772461,00003.295898,00002.617188,00002.573242,00002.622070,00003.100586,00002.294922,00002.099609,-00002.080078,-00000.180664,-00000.581055,00000.014648,-00000.019531,-00000.239258
0000000001142,00002.377930,00001.669922,00001.772461,00003.295898,00002.617188,00002.568359,00002.617188,00003.100586,00002.294922,00002.094727,-00002.060547,-00000.180664,-00000.585938,00000.009766,-00000.019531,-00000.239258
0000000001143,00002.377930,00001.669922,00001.772461,00003.295898,00002.617188,00002.573242,00002.622070,00003.100586,00002.299805,00002.094727,-00002.050781,-00000.185547,-00000.590820,00000.009766,-00000.014648,-00000.239258
0000000001144,00002.382813,00001.669922,00001.772461,00003.295898,00002.617188,00002.573242,00002.617188,00003.100586,00002.294922,00002.099609,-00002.045898,-00000.190430,-00000.590820,00000.014648,-00000.009766,-00000.234375
0000000001145,00002.382813,00001.669922,00001.777344,00003.295898,00002.617188,00002.578125,00002.617188,00003.105469,00002.294922,00002.099609,-00002.070313,-00000.185547,-00000.585938,00000.014648,-00000.009766,-00000.234375
0000000001146,00002.382813,00001.669922,00001.772461,00003.305664,00002.612305,00002.578125,00002.622070,00003.100586,00002.299805,00002.094727,-00002.080078,-00000.185547,-00000.585938,00000.009766,-00000.019531,-00000.239258
0000000001147,00002.377930,00001.669922,00001.772461,00003.300781,00002.612305,00002.578125,00002.622070,00003.100586,00002.299805,00002.094727,-00002.080078,-00000.180664,-00000.581055,00000.009766,-00000.029297,-00000.244141
0000000001148,00002.382813,00001.669922,00001.777344,00003.295898,00002.617188,00002.573242,00002.617188,00003.105469,00002.294922,00002.099609,-00002.084961,-00000.185547,-00000.585938,00000.009766,-00000.029297,-00000.249023
0000000001149,00002.382813,00001.669922,00001.777344,00003.295898,00002.617188,00002.573242,00002.622070,00003.105469,00002.294922,00002.099609,-00002.075195,-00000.185547,-00000.585938,00000.009766,-00000.029297,-00000.249023
0000000001150,00002.382813,00001.669922,00001.777344,00003.300781,00002.617188,00002.578125,00002.622070,00003.110352,00002.294922,00002.099609,-00002.065430,-00000.185547,-00000.585938,00000.009766,-00000.014648,-00000.244141
0000000001151,00002.377930,00001.674805,00001.772461,00003.291016,00002.617188,00002.573242,00002.622070,00003.100586,00002.294922,00002.094727,-00002.080078,-00000.180664,-00000.581055,00000.014648,-00000.009766,-00000.239258
0000000001152,00002.377930,00001.669922,00001.772461,00003.291016,00002.612305,00002.568359,00002.622070,00003.100586,00002.294922,00002.089844,-00002.099609,-00000.180664,-00000.581055,00000.014648,-00000.014648,-00000.234375
0000000001153,00002.377930,00001.669922,00001.767578,00003.295898,00002.612305,00002.578125,00002.622070,00003.100586,00002.299805,00002.094727,-00002.114258,-00000.180664,-00000.581055,00000.009766,-00000.024414,-00000.234375
0000000001154,00002.377930,00001.669922,00001.772461,00003.291016,00002.617188,00002.568359,00002.622070,00003.100586,00002.294922,00002.094727,-00002.133789,-00000.180664,-00000.581055,00000.009766,-00000.024414,-00000.234375
0000000001155,00002.382813,00001.665039,00001.767578,00003.295898,00002.612305,00002.573242,00002.617188,00003.105469,00002.294922,00002.094727,-00002.138672,-00000.175781,-00000.576172,00000.009766,-00000.019531,-00000.239258
0000000001156,00002.377930,00001.665039,00001.767578,00003.295898,00002.612305,00002.573242,00002.622070,00003.100586,00002.299805,00002.089844,-00002.133789,-00000.175781,-00000.576172,00000.009766,-00000.014648,-00000.239258
0000000001157,00002.382813,00001.669922,00001.767578,00003.295898,00002.612305,00002.573242,00002.617188,00003.100586,00002.299805,00002.094727,-00002.124023,-00000.175781,-00000.576172,00000.014648,-00000.009766,-00000.234375
0000000001158,00002.377930,00001.669922,00001.767578,00003.291016,00002.612305,00002.573242,00002.622070,00003.100586,00002.294922,00002.089844,-00002.124023,-00000.175781,-00000.576172,00000.014648,-00000.004883,-00000.234375
0000000001159,00002.382813,00001.665039,00001.772461,00003.291016,00002.612305,00002.573242,00002.617188,00003.105469,00002.294922,00002.094727,-00002.133789,-00000.170898,-00000.576172,00000.014648,00000.000000,-00000.224609
0000000001160,00002.377930,00001.665039,00001.772461,00003.286133,00002.612305,00002.568359,00002.622070,00003.095703,00002.294922,00002.089844,-00002.143555,-00000.170898,-00000.576172,00000.014648,00000.000000,-00000.219727
0000000001161,00002.377930,00001.669922,00001.772461,00003.291016,00002.617188,00002.568359,00002.622070,00003.100586,00002.294922,00002.094727,-00002.153320,-00000.170898,-00000.571289,00000.014648,00000.000000,-00000.219727
0000000001162,00002.382813,00001.665039,00001.772461,00003.281250,00002.617188,00002.568359,00002.622070,00003.100586,00002.294922,00002.094727,-00002.153320,-00000.166016,-00000.571289,00000.019531,-00000.004883,-00000.214844
0000000001163,00002.382813,00001.669922,00001.772461,00003.281250,00002.612305,00002.578125,00002.622070,00003.105469,00002.299805,00002.094727,-00002.138672,-00000.166016,-00000.571289,00000.019531,-00000.004883,-00000.219727
0000000001164,00002.377930,00001.669922,00001.772461,00003.276367,00002.612305,00002.568359,00002.622070,00003.095703,00002.294922,00002.089844,-00002.138672,-00000.170898,-00000.576172,00000.019531,00000.000000,-00000.219727
0000000001165,00002.377930,00001.665039,00001.767578,00003.271484,00002.607422,00002.573242,00002.617188,00003.100586,00002.294922,00002.089844,-00002.148438,-00000.170898,-00000.576172,00000.019531,00000.004883,-00000.214844
0000000001166,00002.387695,00001.665039,00001.772461,00003.286133,00002.612305,00002.573242,00002.617188,00003.105469,00002.299805,00002.094727,-00002.158203,-00000.166016,-00000.571289,00000.019531,00000.000000,-00000.209961
0000000001167,00002.382813,00001.665039,00001.772461,00003.276367,00002.617188,00002.568359,00002.622070,00003.100586,00002.294922,00002.094727,-00002.153320,-00000.166016,-00000.571289,00000.014648,00000.000000,-00000.205078
0000000001168,00002.387695,00001.669922,00001.772461,00003.281250,00002.612305,00002.578125,00002.622070,00003.105469,00002.294922,00002.094727,-00002.148438,-00000.166016,-00000.576172,00000.014648,-00000.004883,-00000.214844
0000000001169,00002.387695,00001.665039,00001.772461,00003.276367,00002.612305,00002.573242,00002.617188,00003.105469,00002.294922,00002.094727,-00002.148438,-00000.166016,-00000.576172,00000.019531,00000.000000,-00000.219727
0000000001170,00002.382813,00001.665039,00001.772461,00003.271484,00002.612305,00002.568359,00002.617188,00003.100586,00002.294922,00002.094727,-00002.138672,-00000.166016,-00000.576172,00000.019531,00000.000000,-00000.219727
0000000001171,00002.382813,00001.669922,00001.772461,00003.266602,00002.617188,00002.568359,00002.622070,00003.100586,00002.294922,00002.094727,-00002.153320,-00000.161133,-00000.576172,00000.019531,-00000.004883,-00000.214844
0000000001172,00002.387695,00001.665039,00001.772461,00003.271484,00002.612305,00002.573242,00002.617188,00003.100586,00002.294922,00002.089844,-00002.158203,-00000.166016,-00000.576172,00000.014648,-00000.004883,-00000.214844
0000000001173,00002.382813,00001.669922,00001.772461,00003.271484,00002.612305,00002.568359,00002.622070,00003.100586,00002.294922,00002.089844,-00002.143555,-00000.166016,-00000.581055,00000.014648,-00000.004883,-00000.224609
0000000001174,00002.382813,00001.669922,00001.772461,00003.276367,00002.612305,00002.573242,00002.622070,00003.100586,00002.294922,00002.089844,-00002.153320,-00000.170898,-00000.585938,00000.014648,00000.004883,-00000.224609
0000000001175,00002.387695,00001.669922,00001.772461,00003.266602,00002.617188,00002.568359,00002.622070,00003.105469,00002.294922,00002.094727,-00002.163086,-00000.166016,-00000.585938,00000.014648,00000.000000,-00000.224609
0000000001176,00002.387695,00001.665039,00001.772461,00003.271484,00002.612305,00002.573242,00002.622070,00003.105469,00002.294922,00002.094727,-00002.167969,-00000.166016,-00000.585938,00000.014648,-00000.004883,-00000.224609
0000000001177,00002.382813,00001.669922,00001.772461,00003.227539,00002.617188,00002.568359,00002.626953,00003.100586,00002.294922,00002.094727,-00002.182617,-00000.166016,-00000.581055,00000.014648,-00000.004883,-00000.234375
0000000001178,00002.387695,00001.665039,00001.772461,00003.217773,00002.612305,00002.573242,00002.626953,00003.105469,00002.294922,00002.094727,-00002.192383,-00000.166016,-00000.585938,00000.009766,-00000.004883,-00000.239258
0000000001179,00002.377930,00001.665039,00001.767578,00003.217773,00002.612305,00002.568359,00002.626953,00003.105469,00002.299805,00002.089844,-00002.187500,-00000.166016,-00000.585938,00000.009766,-00000.004883,-00000.234375
0000000001180,00002.382813,00001.665039,00001.772461,00003.217773,00002.617188,00002.568359,00002.631836,00003.100586,00002.294922,00002.089844,-00002.187500,-00000.166016,-00000.585938,00000.009766,00000.000000,-00000.229492
0000000001181,00002.382813,00001.669922,00001.772461,00003.217773,00002.617188,00002.568359,00002.631836,00003.105469,00002.299805,00002.089844,-00002.197266,-00000.166016,-00000.585938,00000.009766,00000.000000,-00000.229492
0000000001182,00002.382813,00001.665039,00001.772461,00003.212891,00002.617188,00002.568359,00002.626953,00003.105469,00002.294922,00002.094727,-00002.211914,-00000.166016,-00000.581055,00000.014648,00000.004883,-00000.234375
0000000001183,00002.382813,00001.669922,00001.767578,00003.217773,00002.612305,00002.568359,00002.631836,00003.100586,00002.294922,00002.084961,-00002.260742,-00000.156250,-00000.576172,00000.014648,-00000.004883,-00000.253906
0000000001184,00002.382813,00001.665039,00001.772461,00003.217773,00002.617188,00002.568359,00002.631836,00003.105469,00002.299805,00002.089844,-00002.265625,-00000.146484,-00000.571289,00000.014648,-00000.019531,-00000.258789
0000000001185,00002.387695,00001.660156,00001.772461,00003.217773,00002.612305,00002.568359,00002.626953,00003.105469,00002.294922,00002.089844,-00002.275391,-00000.146484,-00000.571289,00000.019531,-00000.014648,-00000.258789
0000000001186,00002.382813,00001.665039,00001.772461,00003.217773,00002.607422,00002.568359,00002.626953,00003.100586,00002.294922,00002.084961,-00002.324219,-00000.146484,-00000.566406,00000.019531,-00000.009766,-00000.258789
0000000001187,00002.382813,00001.665039,00001.772461,00003.212891,00002.617188,00002.563477,00002.631836,00003.105469,00002.294922,00002.089844,-00002.329102,-00000.146484,-00000.566406,00000.019531,-00000.014648,-00000.258789
0000000001188,00002.382813,00001.660156,00001.767578,00003.212891,00002.612305,00002.563477,00002.626953,00003.100586,00002.299805,00002.084961,-00002.304688,-00000.151367,-00000.571289,00000.019531,00000.000000,-00000.258789
0000000001189,00002.382813,00001.660156,00001.772461,00003.212891,00002.612305,00002.558594,00002.626953,00003.095703,00002.294922,00002.084961,-00002.285156,-00000.156250,-00000.581055,00000.019531,00000.014648,-00000.258789
0000000001190,00002.382813,00001.660156,00001.767578,00003.203125,00002.612305,00002.558594,00002.622070,00003.100586,00002.294922,00002.084961,-00002.294922,-00000.161133,-00000.585938,00000.019531,00000.019531,-00000.249023
0000000001191,00002.382813,00001.660156,00001.767578,00003.198242,00002.612305,00002.563477,00002.622070,00003.100586,00002.294922,00002.084961,-00002.290039,-00000.156250,-00000.585938,00000.019531,00000.019531,-00000.249023
0000000001192,00002.387695,00001.660156,00001.772461,00003.198242,00002.612305,00002.563477,00002.622070,00003.100586,00002.294922,00002.084961,-00002.275391,-00000.156250,-00000.585938,00000.019531,00000.024414,-00000.249023
0000000001193,00002.387695,00001.665039,00001.772461,00003.193359,00002.612305,00002.558594,00002.622070,00003.105469,00002.290039,00002.084961,-00002.236328,-00000.161133,-00000.590820,00000.019531,00000.039063,-00000.239258
0000000001194,00002.387695,00001.660156,00001.772461,00003.193359,00002.612305,00002.558594,00002.622070,00003.105469,00002.294922,00002.089844,-00002.216797,-00000.161133,-00000.590820,00000.019531,00000.039063,-00000.234375
0000000001195,00002.382813,00001.660156,00001.772461,00003.188477,00002.612305,00002.553711,00002.622070,00003.105469,00002.290039,00002.089844,-00002.221680,-00000.161133,-00000.590820,00000.019531,00000.039063,-00000.229492
0000000001196,00002.382813,00001.665039,00001.767578,00003.193359,00002.612305,00002.563477,00002.626953,00003.100586,00002.294922,00002.089844,-00002.216797,-00000.161133,-00000.590820,00000.019531,00000.034180,-00000.229492
0000000001197,00002.382813,00001.665039,00001.772461,00003.188477,00002.617188,00002.563477,00002.626953,00003.105469,00002.290039,00002.089844,-00002.231445,-00000.151367,-00000.585938,00000.019531,00000.034180,-00000.239258
0000000001198,00002.382813,00001.665039,00001.772461,00003.188477,00002.617188,00002.563477,00002.631836,00003.100586,00002.294922,00002.084961,-00002.231445,-00000.156250,-00000.585938,00000.019531,00000.034180,-00000.234375
0000000001199,00002.382813,00001.660156,00001.772461,00003.183594,00002.617188,00002.558594,00002.626953,00003.105469,00002.290039,00002.089844,-00002.231445,-00000.156250,-00000.590820,00000.019531,00000.034180,-00000.229492
0000000001200,00002.387695,00001.665039,00001.772461,00003.188477,00002.617188,00002.563477,00002.631836,00003.105469,00002.290039,00002.089844,-00002.236328,-00000.156250,-00000.590820,00000.019531,00000.034180,-00000.224609
0000000001201,00002.387695,00001.665039,00001.772461,00003.193359,00002.612305,00002.568359,00002.631836,00003.100586,00002.294922,00002.084961,-00002.246094,-00000.156250,-00000.585938,00000.019531,00000.029297,-00000.229492
0000000001202,00002.387695,00001.660156,00001.772461,00003.193359,00002.612305,00002.568359,00002.631836,00003.105469,00002.294922,00002.084961,-00002.260742,-00000.156250,-00000.585938,00000.019531,00000.029297,-00000.234375
0000000001203,00002.382813,00001.665039,00001.772461,00003.183594,00002.612305,00002.558594,00002.631836,00003.100586,00002.294922,00002.084961,-00002.265625,-00000.151367,-00000.581055,00000.019531,00000.029297,-00000.234375
0000000001204,00002.382813,00001.665039,00001.772461,00003.183594,00002.617188,00002.558594,00002.636719,00003.105469,00002.294922,00002.089844,-00002.255859,-00000.151367,-00000.585938,00000.019531,00000.029297,-00000.239258
0000000001205,00002.382813,00001.660156,00001.777344,00003.183594,00002.617188,00002.558594,00002.636719,00003.105469,00002.294922,00002.084961,-00002.275391,-00000.156250,-00000.585938,00000.019531,00000.029297,-00000.234375
0000000001206,00002.382813,00001.665039,00001.772461,00003.183594,00002.612305,00002.558594,00002.636719,00003.100586,00002.294922,00002.089844,-00002.265625,-00000.156250,-00000.590820,00000.019531,00000.029297,-00000.234375
0000000001207,00002.382813,00001.660156,00001.772461,00003.178711,00002.612305,00002.558594,00002.636719,00003.100586,00002.294922,00002.084961,-00002.255859,-00000.161133,-00000.595703,00000.019531,00000.039063,-00000.239258
0000000001208,00002.387695,00001.665039,00001.772461,00003.188477,00002.612305,00002.563477,00002.631836,00003.100586,00002.294922,00002.084961,-00002.255859,-00000.161133,-00000.595703,00000.019531,00000.034180,-00000.244141
0000000001209,00002.382813,00001.665039,00001.772461,00003.178711,00002.617188,00002.558594,00002.631836,00003.100586,00002.290039,00002.084961,-00002.260742,-00000.161133,-00000.595703,00000.014648,00000.029297,-00000.244141
0000000001210,00002.382813,00001.665039,00001.772461,00003.183594,00002.612305,00002.558594,00002.636719,00003.095703,00002.294922,00002.084961,-00002.260742,-00000.156250,-00000.595703,00000.019531,00000.039063,-00000.249023
0000000001211,00002.387695,00001.660156,00001.777344,00003.178711,00002.612305,00002.558594,00002.631836,00003.105469,00002.290039,00002.084961,-00002.250977,-00000.161133,-00000.595703,00000.014648,00000.039063,-00000.249023
0000000001212,00002.387695,00001.660156,00001.777344,00003.183594,00002.612305,00002.558594,00002.631836,00003.105469,00002.290039,00002.084961,-00002.270508,-00000.156250,-00000.595703,00000.019531,00000.029297,-00000.258789
0000000001213,00002.387695,00001.665039,00001.777344,00003.183594,00002.617188,00002.558594,00002.641602,00003.105469,00002.294922,00002.089844,-00002.265625,-00000.156250,-00000.595703,00000.014648,00000.029297,-00000.253906
0000000001214,00002.387695,00001.660156,00001.782227,00003.183594,00002.617188,00002.563477,00002.636719,00003.105469,00002.290039,00002.089844,-00002.241211,-00000.161133,-00000.605469,00000.009766,00000.039063,-00000.253906
0000000001215,00002.387695,00001.665039,00001.777344,00003.183594,00002.617188,00002.563477,00002.641602,00003.100586,00002.294922,00002.084961,-00002.226563,-00000.166016,-00000.610352,00000.009766,00000.043945,-00000.253906
0000000001216,00002.387695,00001.665039,00001.782227,00003.183594,00002.612305,00002.568359,00002.636719,00003.105469,00002.294922,00002.084961,-00002.221680,-00000.166016,-00000.605469,00000.009766,00000.048828,-00000.253906
0000000001217,00002.392578,00001.665039,00001.777344,00003.183594,00002.612305,00002.563477,00002.631836,00003.105469,00002.290039,00002.084961,-00002.221680,-00000.166016,-00000.610352,00000.004883,00000.039063,-00000.253906
0000000001218,00002.387695,00001.665039,00001.777344,00003.188477,00002.617188,00002.568359,00002.636719,00003.105469,00002.294922,00002.084961,-00002.226563,-00000.166016,-00000.610352,00000.004883,00000.043945,-00000.249023
0000000001219,00002.382813,00001.665039,00001.777344,00003.178711,00002.617188,00002.558594,00002.641602,00003.100586,00002.299805,00002.084961,-00002.221680,-00000.161133,-00000.605469,00000.004883,00000.039063,-00000.253906
0000000001220,00002.387695,00001.669922,00001.777344,00003.188477,00002.617188,00002.563477,00002.641602,00003.105469,00002.299805,00002.089844,-00002.231445,-00000.161133,-00000.605469,00000.009766,00000.039063,-00000.258789
0000000001221,00002.392578,00001.665039,00001.782227,00003.183594,00002.617188,00002.563477,00002.636719,00003.105469,00002.290039,00002.089844,-00002.241211,-00000.161133,-00000.605469,00000.004883,00000.034180,-00000.258789
0000000001222,00002.387695,00001.665039,00001.777344,00003.178711,00002.617188,00002.558594,00002.641602,00003.105469,00002.294922,00002.089844,-00002.236328,-00000.166016,-00000.605469,00000.004883,00000.043945,-00000.263672
0000000001223,00002.387695,00001.665039,00001.777344,00003.178711,00002.612305,00002.563477,00002.636719,00003.105469,00002.294922,00002.089844,-00002.236328,-00000.166016,-00000.605469,00000.004883,00000.043945,-00000.268555
0000000001224,00002.387695,00001.660156,00001.777344,00003.178711,00002.612305,00002.558594,00002.636719,00003.105469,00002.294922,00002.089844,-00002.241211,-00000.161133,-00000.610352,00000.004883,00000.034180,-00000.273438
0000000001225,00002.382813,00001.665039,00001.772461,00003.183594,00002.612305,00002.558594,00002.636719,00003.100586,00002.294922,00002.084961,-00002.241211,-00000.161133,-00000.605469,00000.004883,00000.039063,-00000.268555
0000000001226,00002.387695,00001.665039,00001.777344,00003.173828,00002.617188,00002.553711,00002.641602,00003.100586,00002.294922,00002.084961,-00002.241211,-00000.161133,-00000.605469,00000.004883,00000.043945,-00000.263672
0000000001227,00002.382813,00001.665039,00001.772461,00003.178711,00002.612305,00002.558594,00002.641602,00003.100586,00002.294922,00002.084961,-00002.241211,-00000.161133,-00000.605469,00000.004883,00000.039063,-00000.268555
0000000001228,00002.382813,00001.669922,00001.777344,00003.178711,00002.617188,00002.553711,00002.641602,00003.105469,00002.294922,00002.089844,-00002.241211,-00000.156250,-00000.600586,00000.004883,00000.039063,-00000.263672
0000000001229,00002.382813,00001.665039,00001.777344,00003.173828,00002.617188,00002.548828,00002.641602,00003.100586,00002.294922,00002.084961,-00002.236328,-00000.161133,-00000.605469,00000.004883,00000.043945,-00000.263672
0000000001230,00002.382813,00001.665039,00001.777344,00003.173828,00002.617188,00002.548828,00002.641602,00003.100586,00002.294922,00002.084961,-00002.250977,-00000.156250,-00000.605469,00000.000000,00000.039063,-00000.263672
0000000001231,00002.382813,00001.665039,00001.772461,00003.173828,00002.612305,00002.553711,00002.641602,00003.100586,00002.294922,00002.084961,-00002.260742,-00000.161133,-00000.605469,00000.004883,00000.034180,-00000.263672
0000000001232,00002.382813,00001.660156,00001.772461,00003.168945,00002.612305,00002.548828,00002.641602,00003.100586,00002.290039,00002.084961,-00002.275391,-00000.151367,-00000.600586,00000.000000,00000.024414,-00000.263672
0000000001233,00002.387695,00001.665039,00001.777344,00003.178711,00002.612305,00002.553711,00002.641602,00003.105469,00002.294922,00002.084961,-00002.250977,-00000.156250,-00000.610352,00000.000000,00000.029297,-00000.263672
0000000001234,00002.387695,00001.665039,00001.777344,00003.178711,00002.612305,00002.553711,00002.636719,00003.105469,00002.290039,00002.084961,-00002.255859,-00000.156250,-00000.610352,00000.000000,00000.039063,-00000.263672
0000000001235,00002.382813,00001.665039,00001.772461,00003.173828,00002.612305,00002.548828,00002.636719,00003.095703,00002.294922,00002.084961,-00002.265625,-00000.156250,-00000.610352,00000.000000,00000.039063,-00000.263672
0000000001236,00002.387695,00001.660156,00001.777344,00003.173828,00002.617188,00002.553711,00002.636719,00003.110352,00002.290039,00002.084961,-00002.255859,-00000.156250,-00000.610352,00000.000000,00000.039063,-00000.258789
0000000001237,00002.382813,00001.665039,00001.772461,00003.178711,00002.612305,00002.548828,00002.641602,00003.100586,00002.294922,00002.084961,-00002.241211,-00000.161133,-00000.615234,-00000.004883,00000.039063,-00000.258789
0000000001238,00002.387695,00001.665039,00001.772461,00003.178711,00002.612305,00002.548828,00002.636719,00003.095703,00002.294922,00002.080078,-00002.246094,-00000.156250,-00000.615234,00000.000000,00000.043945,-00000.263672
0000000001239,00002.387695,00001.660156,00001.777344,00003.173828,00002.617188,00002.553711,00002.641602,00003.105469,00002.290039,00002.089844,-00002.246094,-00000.161133,-00000.615234,-00000.004883,00000.039063,-00000.258789
0000000001240,00002.387695,00001.665039,00001.777344,00003.183594,00002.612305,00002.553711,00002.641602,00003.105469,00002.294922,00002.084961,-00002.241211,-00000.161133,-00000.615234,-00000.004883,00000.039063,-00000.253906
0000000001241,00002.387695,00001.665039,00001.777344,00003.173828,00002.612305,00002.553711,00002.641602,00003.100586,00002.294922,00002.080078,-00002.231445,-00000.166016,-00000.620117,00000.000000,00000.048828,-00000.253906
0000000001242,00002.382813,00001.665039,00001.777344,00003.168945,00002.617188,00002.548828,00002.646484,00003.100586,00002.294922,00002.089844,-00002.226563,-00000.166016,-00000.620117,-00000.004883,00000.043945,-00000.258789
0000000001243,00002.392578,00001.665039,00001.777344,00003.173828,00002.617188,00002.553711,00002.641602,00003.110352,00002.294922,00002.089844,-00002.221680,-00000.161133,-00000.615234,00000.000000,00000.043945,-00000.253906
0000000001244,00002.387695,00001.665039,00001.777344,00003.178711,00002.617188,00002.558594,00002.646484,00003.105469,00002.294922,00002.084961,-00002.211914,-00000.161133,-00000.620117,00000.000000,00000.043945,-00000.249023
0000000001245,00002.387695,00001.665039,00001.777344,00003.168945,00002.617188,00002.553711,00002.641602,00003.105469,00002.290039,00002.089844,-00002.197266,-00000.166016,-00000.625000,-00000.004883,00000.048828,-00000.249023
0000000001246,00002.392578,00001.665039,00001.777344,00003.178711,00002.612305,00002.558594,00002.646484,00003.105469,00002.294922,00002.084961,-00002.192383,-00000.161133,-00000.620117,-00000.004883,00000.043945,-00000.249023
0000000001247,00002.392578,00001.669922,00001.777344,00003.173828,00002.622070,00002.558594,00002.651367,00003.105469,00002.294922,00002.089844,-00002.202148,-00000.161133,-00000.620117,-00000.004883,00000.043945,-00000.249023
0000000001248,00002.387695,00001.669922,00001.777344,00003.173828,00002.617188,00002.553711,00002.646484,00003.100586,00002.299805,00002.089844,-00002.207031,-00000.161133,-00000.615234,-00000.004883,00000.043945,-00000.249023
0000000001249,00002.392578,00001.665039,00001.782227,00003.173828,00002.617188,00002.563477,00002.646484,00003.110352,00002.294922,00002.089844,-00002.192383,-00000.166016,-00000.620117,-00000.004883,00000.043945,-00000.249023
0000000001250,00002.392578,00001.669922,00001.777344,00003.178711,00002.617188,00002.558594,00002.651367,00003.100586,00002.294922,00002.089844,-00002.187500,-00000.166016,-00000.620117,-00000.004883,00000.048828,-00000.253906
0000000001251,00002.392578,00001.669922,00001.777344,00003.173828,00002.617188,00002.558594,00002.651367,00003.100586,00002.294922,00002.084961,-00002.177734,-00000.166016,-00000.620117,-00000.004883,00000.039063,-00000.253906
0000000001252,00002.392578,00001.665039,00001.782227,00003.168945,00002.622070,00002.558594,00002.646484,00003.100586,00002.294922,00002.089844,-00002.197266,-00000.161133,-00000.615234,00000.000000,00000.043945,-00000.249023
0000000001253,00002.392578,00001.669922,00001.777344,00003.173828,00002.617188,00002.558594,00002.646484,00003.100586,00002.294922,00002.084961,-00002.202148,-00000.166016,-00000.620117,00000.000000,00000.048828,-00000.249023
0000000001254,00002.397461,00001.669922,00001.782227,00003.168945,00002.622070,00002.563477,00002.646484,00003.110352,00002.294922,00002.089844,-00002.187500,-00000.166016,-00000.625000,-00000.004883,00000.043945,-00000.253906
0000000001255,00002.397461,00001.665039,00001.782227,00003.173828,00002.622070,00002.563477,00002.646484,00003.110352,00002.294922,00002.089844,-00002.182617,-00000.166016,-00000.620117,00000.000000,00000.058594,-00000.253906
0000000001256,00002.397461,00001.669922,00001.782227,00003.173828,00002.622070,00002.563477,00002.646484,00003.110352,00002.294922,00002.089844,-00002.192383,-00000.166016,-00000.620117,00000.000000,00000.053711,-00000.244141
0000000001257,00002.397461,00001.665039,00001.782227,00003.168945,00002.622070,00002.558594,00002.646484,00003.110352,00002.294922,00002.094727,-00002.197266,-00000.170898,-00000.620117,-00000.004883,00000.053711,-00000.244141
0000000001258,00002.392578,00001.665039,00001.777344,00003.173828,00002.617188,00002.553711,00002.646484,00003.105469,00002.294922,00002.084961,-00002.202148,-00000.170898,-00000.620117,00000.000000,00000.053711,-00000.249023
0000000001259,00002.392578,00001.665039,00001.777344,00003.168945,00002.622070,00002.553711,00002.651367,00003.105469,00002.294922,00002.089844,-00002.182617,-00000.175781,-00000.625000,00000.000000,00000.053711,-00000.253906
0000000001260,00002.397461,00001.665039,00001.782227,00003.168945,00002.617188,00002.553711,00002.641602,00003.110352,00002.290039,00002.089844,-00002.163086,-00000.180664,-00000.629883,-00000.004883,00000.063477,-00000.249023
0000000001261,00002.387695,00001.669922,00001.777344,00003.173828,00002.617188,00002.548828,00002.651367,00003.100586,00002.294922,00002.089844,-00002.163086,-00000.185547,-00000.629883,-00000.004883,00000.063477,-00000.249023
0000000001262,00002.392578,00001.665039,00001.782227,00003.168945,00002.617188,00002.548828,00002.646484,00003.105469,00002.290039,00002.089844,-00002.172852,-00000.175781,-00000.620117,-00000.004883,00000.053711,-00000.258789
0000000001263,00002.392578,00001.669922,00001.777344,00003.178711,00002.622070,00002.553711,00002.651367,00003.105469,00002.299805,00002.089844,-00002.167969,-00000.180664,-00000.620117,-00000.004883,00000.043945,-00000.258789
0000000001264,00002.392578,00001.665039,00001.777344,00003.173828,00002.612305,00002.553711,00002.646484,00003.105469,00002.294922,00002.084961,-00002.143555,-00000.180664,-00000.629883,-00000.004883,00000.058594,-00000.253906
0000000001265,00002.392578,00001.665039,00001.777344,00003.168945,00002.617188,00002.553711,00002.646484,00003.105469,00002.290039,00002.089844,-00002.153320,-00000.175781,-00000.625000,-00000.004883,00000.058594,-00000.249023
0000000001266,00002.392578,00001.669922,00001.777344,00003.168945,00002.617188,00002.548828,00002.651367,00003.105469,00002.294922,00002.084961,-00002.163086,-00000.175781,-00000.625000,-00000.004883,00000.053711,-00000.253906
