0000000001343,00002.726847,00002.177582,00002.188463,00003.201100,00002.842092,00002.800998,00002.691030,00003.156709,00002.764570,00002.828206,-00000.378176,-00000.083327,-00000.551538,-00000.071088,-00000.063782,-00000.159463
0000000001344,00002.726929,00002.177468,00002.188716,00003.200645,00002.842329,00002.800652,00002.691211,00003.156770,00002.764344,00002.828380,-00000.378374,-00000.083296,-00000.551531,-00000.070888,-00000.063365,-00000.159584
0000000001345,00002.726605,00002.177749,00002.188464,00003.200355,00002.842127,00002.800250,00002.691397,00003.156397,00002.764523,00002.828129,-00000.378174,-00000.083271,-00000.551879,-00000.070676,-00000.063005,-00000.159695
0000000001346,00002.727037,00002.177653,00002.188679,00003.200331,00002.842329,00002.800319,00002.691552,00003.156449,00002.764330,00002.828277,-00000.377980,-00000.083245,-00000.551872,-00000.070868,-00000.062649,-00000.159798
0000000001347,00002.727124,00002.177892,00002.188465,00003.200809,00002.842156,00002.800339,00002.691710,00003.156132,00002.764483,00002.828063,-00000.378173,-00000.083224,-00000.551806,-00000.070687,-00000.062343,-00000.159893
0000000001348,00002.727129,00002.177810,00002.188648,00003.200426,00002.842328,00002.800398,00002.691478,00003.156177,00002.764319,00002.828189,-00000.378370,-00000.083201,-00000.551800,-00000.070488,-00000.062040,-00000.159980
0000000001349,00002.727203,00002.177651,00002.188465,00003.200833,00002.842181,00002.800778,00002.691613,00003.155907,00002.764449,00002.828007,-00000.378534,-00000.083183,-00000.551743,-00000.070334,-00000.061780,-00000.160061
0000000001350,00002.727208,00002.177581,00002.188621,00003.200870,00002.842328,00002.801191,00002.691416,00003.156307,00002.764309,00002.828114,-00000.378702,-00000.083164,-00000.552101,-00000.070527,-00000.061522,-00000.160136
0000000001351,00002.727271,00002.177446,00002.188466,00003.201217,00002.842203,00002.801514,00002.691168,00003.156440,00002.764420,00002.827960,-00000.378842,-00000.083149,-00000.552053,-00000.070759,-00000.061663,-00000.159842
0000000001352,00002.726912,00002.177386,00002.188236,00003.200885,00002.841965,00002.801140,00002.691001,00003.156056,00002.764664,00002.827688,-00000.378985,-00000.083133,-00000.551995,-00000.070924,-00000.061806,-00000.159542
0000000001353,00002.726965,00002.177633,00002.188104,00003.200817,00002.841858,00002.801052,00002.690789,00003.156169,00002.764758,00002.827556,-00000.378741,-00000.083482,-00000.551954,-00000.071121,-00000.061563,-00000.159292
0000000001354,00002.727385,00002.177583,00002.188270,00003.200535,00002.841656,00002.801097,00002.690647,00003.156204,00002.764602,00002.827688,-00000.378500,-00000.083831,-00000.551905,-00000.071261,-00000.061686,-00000.159037
0000000001355,00002.727794,00002.177431,00002.188158,00003.200477,00002.841565,00002.801385,00002.690467,00003.156301,00002.764320,00002.827576,-00000.378292,-00000.083766,-00000.551870,-00000.071429,-00000.061841,-00000.158824
0000000001356,00002.728151,00002.177387,00002.187937,00003.200600,00002.841392,00002.801423,00002.690345,00003.156331,00002.764188,00002.827325,-00000.378450,-00000.084063,-00000.551828,-00000.071548,-00000.061946,-00000.158607
0000000001357,00002.728136,00002.177258,00002.187841,00003.200551,00002.840953,00002.801668,00002.690192,00003.156413,00002.763947,00002.827230,-00000.378636,-00000.084371,-00000.551798,-00000.071692,-00000.062078,-00000.158788
0000000001358,00002.727715,00002.177584,00002.187653,00003.200292,00002.840806,00002.801700,00002.690452,00003.156439,00002.764197,00002.827379,-00000.378407,-00000.084624,-00000.551762,-00000.071793,-00000.062167,-00000.158604
0000000001359,00002.727702,00002.177474,00002.187572,00003.200613,00002.840794,00002.801909,00002.690321,00003.156508,00002.764355,00002.827660,-00000.378203,-00000.084523,-00000.551737,-00000.071915,-00000.062280,-00000.158395
0000000001360,00002.727343,00002.177751,00002.187412,00003.200756,00002.840669,00002.801937,00002.690542,00003.156530,00002.764206,00002.827787,-00000.378008,-00000.084375,-00000.551706,-00000.072001,-00000.062355,-00000.158238
0000000001361,00002.727332,00002.177658,00002.187705,00003.200304,00002.841022,00002.802115,00002.690794,00003.156590,00002.763977,00002.828027,-00000.377834,-00000.084652,-00000.551685,-00000.072105,-00000.062451,-00000.158061
0000000001362,00002.727390,00002.177894,00002.187569,00003.200788,00002.840915,00002.802501,00002.690982,00003.156608,00002.764213,00002.827772,-00000.377669,-00000.084526,-00000.551659,-00000.072178,-00000.062516,-00000.157927
0000000001363,00002.727381,00002.178177,00002.187456,00003.200766,00002.840853,00002.802652,00002.691196,00003.156296,00002.764381,00002.827614,-00000.377520,-00000.084399,-00000.551640,-00000.072267,-00000.062598,-00000.157776
0000000001364,00002.727792,00002.178015,00002.187703,00003.200815,00002.840762,00002.802981,00002.690994,00003.156312,00002.763856,00002.827760,-00000.377379,-00000.084292,-00000.551618,-00000.072329,-00000.062652,-00000.157662
0000000001365,00002.728147,00002.177893,00002.187969,00003.200796,00002.840709,00002.803110,00002.690813,00003.156772,00002.763637,00002.827987,-00000.377253,-00000.084184,-00000.551603,-00000.072404,-00000.062722,-00000.157533
0000000001366,00002.728135,00002.177756,00002.187454,00003.200838,00002.840269,00002.803389,00002.690641,00003.156422,00002.763552,00002.827749,-00000.377133,-00000.084093,-00000.551584,-00000.072095,-00000.062768,-00000.157436
0000000001367,00002.727712,00002.177652,00002.187318,00003.200822,00002.840587,00002.803136,00002.690850,00003.156451,00002.763728,00002.827943,-00000.377389,-00000.084001,-00000.551571,-00000.072159,-00000.062828,-00000.157327
0000000001368,00002.728064,00002.177535,00002.187605,00003.200858,00002.840938,00002.803374,00002.690703,00003.156517,00002.763656,00002.828103,-00000.377649,-00000.083923,-00000.551555,-00000.072258,-00000.062867,-00000.157244
0000000001369,00002.728066,00002.177809,00002.187489,00003.201570,00002.840845,00002.803522,00002.690881,00003.156541,00002.763806,00002.827905,-00000.377504,-00000.083845,-00000.551543,-00000.072313,-00000.062918,-00000.157151
0000000001370,00002.728003,00002.178072,00002.187370,00003.201963,00002.840781,00002.804087,00002.691119,00003.156597,00002.764108,00002.828041,-00000.377363,-00000.083779,-00000.551530,-00000.072397,-00000.062952,-00000.157081
0000000001371,00002.728005,00002.178306,00002.187272,00003.202206,00002.841065,00002.803850,00002.691271,00003.156617,00002.764236,00002.828235,-00000.377239,-00000.083712,-00000.551520,-00000.072444,-00000.062995,-00000.157001
0000000001372,00002.728315,00002.178167,00002.187534,00003.202541,00002.841374,00002.803969,00002.691110,00003.157028,00002.764130,00002.828351,-00000.377119,-00000.083656,-00000.551508,-00000.072515,-00000.063023,-00000.156942
0000000001373,00002.728679,00002.178003,00002.188175,00003.202748,00002.841978,00002.804129,00002.690877,00003.157408,00002.763875,00002.828516,-00000.377014,-00000.083599,-00000.551500,-00000.072192,-00000.063060,-00000.156511
0000000001374,00002.728942,00002.177885,00002.188398,00003.203033,00002.842604,00002.804230,00002.690740,00003.157757,00002.763785,00002.828978,-00000.376912,-00000.083551,-00000.551490,-00000.072253,-00000.063084,-00000.156098
0000000001375,00002.728890,00002.177745,00002.188582,00003.203210,00002.843118,00002.804367,00002.690541,00003.157718,00002.763569,00002.829119,-00000.376822,-00000.083503,-00000.551483,-00000.072341,-00000.063116,-00000.155731
0000000001376,00002.729114,00002.178008,00002.188772,00003.203815,00002.842925,00002.804816,00002.690425,00003.157653,00002.763492,00002.828786,-00000.376735,-00000.083462,-00000.551475,-00000.072030,-00000.062774,-00000.155379
0000000001377,00002.729069,00002.178252,00002.188565,00003.204691,00002.843000,00002.804933,00002.690618,00003.157620,00002.763670,00002.828543,-00000.376659,-00000.083421,-00000.551469,-00000.072105,-00000.062800,-00000.155067
0000000001378,00002.728534,00002.178838,00002.188727,00003.205206,00002.843561,00002.804952,00002.690882,00003.157564,00002.764331,00002.828622,-00000.376585,-00000.083386,-00000.551462,-00000.072203,-00000.062872,-00000.154767
0000000001379,00002.728496,00002.179045,00002.188914,00003.205226,00002.844351,00002.805051,00002.690684,00003.157899,00002.764120,00002.829141,-00000.376520,-00000.083351,-00000.551457,-00000.072267,-00000.062894,-00000.154502
0000000001380,00002.728767,00002.179544,00002.188688,00003.206027,00002.844829,00002.805430,00002.690909,00003.157851,00002.764319,00002.829209,-00000.376457,-00000.083322,-00000.551451,-00000.072350,-00000.062593,-00000.154247
0000000001381,00002.728734,00002.180084,00002.189210,00003.206407,00002.845501,00002.805877,00002.691103,00003.158136,00002.764503,00002.829651,-00000.376401,-00000.083292,-00000.551446,-00000.072404,-00000.062612,-00000.154021
0000000001382,00002.728964,00002.180146,00002.189381,00003.206727,00002.845908,00002.806200,00002.690931,00003.158458,00002.764309,00002.830071,-00000.376348,-00000.083267,-00000.551441,-00000.072113,-00000.062355,-00000.153440
0000000001383,00002.729300,00002.180605,00002.189463,00003.207050,00002.846117,00002.806581,00002.690734,00003.158701,00002.764103,00002.830084,-00000.376301,-00000.083241,-00000.551075,-00000.072159,-00000.062008,-00000.153248
0000000001384,00002.729496,00002.181020,00002.189608,00003.207685,00002.846463,00002.806856,00002.690587,00003.158612,00002.763938,00002.830079,-00000.376255,-00000.083220,-00000.551070,-00000.071911,-00000.061790,-00000.152754
0000000001385,00002.729418,00002.181412,00002.189315,00003.207960,00002.846279,00002.807180,00002.690419,00003.158456,00002.764125,00002.829728,-00000.376215,-00000.083198,-00000.551121,-00000.071587,-00000.061495,-00000.152228
0000000001386,00002.729585,00002.182128,00002.189439,00003.208138,00002.846937,00002.807414,00002.691021,00003.158381,00002.764711,00002.830086,-00000.376176,-00000.083180,-00000.551117,-00000.071376,-00000.061309,-00000.151807
0000000001387,00002.729882,00002.182461,00002.189552,00003.208372,00002.847142,00002.807690,00002.690877,00003.158611,00002.764507,00002.830513,-00000.376142,-00000.083162,-00000.551161,-00000.071100,-00000.060695,-00000.150996
0000000001388,00002.729661,00002.183071,00002.189657,00003.208523,00002.847702,00002.807889,00002.691389,00003.158547,00002.764643,00002.830818,-00000.376109,-00000.083146,-00000.550795,-00000.070920,-00000.060173,-00000.150276
0000000001389,00002.729188,00002.183717,00002.189391,00003.208723,00002.847877,00002.807761,00002.691630,00003.158017,00002.764832,00002.831181,-00000.376080,-00000.083130,-00000.550831,-00000.070686,-00000.059651,-00000.149585
0000000001390,00002.729363,00002.184236,00002.189843,00003.209214,00002.847991,00002.808293,00002.691703,00003.158325,00002.764947,00002.831441,-00000.376051,-00000.083117,-00000.550883,-00000.070533,-00000.059207,-00000.148972
0000000001391,00002.729323,00002.185149,00002.189979,00003.209747,00002.848140,00002.808910,00002.691908,00003.158236,00002.765471,00002.831387,-00000.376027,-00000.083104,-00000.550914,-00000.070333,-00000.059125,-00000.148021
0000000001392,00002.729109,00002.185954,00002.190002,00003.210165,00002.848600,00002.809000,00002.692333,00003.158136,00002.765570,00002.831608,-00000.376003,-00000.083093,-00000.550958,-00000.070203,-00000.059110,-00000.147136
0000000001393,00002.729075,00002.187094,00002.190117,00003.210618,00002.849089,00002.809163,00002.692870,00003.158424,00002.765653,00002.831925,-00000.375982,-00000.083081,-00000.550984,-00000.070033,-00000.058677,-00000.145964
0000000001394,00002.728893,00002.187779,00002.190137,00003.210975,00002.849118,00002.809240,00002.692869,00003.158338,00002.765737,00002.832113,-00000.375961,-00000.082709,-00000.551021,-00000.069922,-00000.057939,-00000.144485
0000000001395,00002.728864,00002.188387,00002.190235,00003.210998,00002.849535,00002.809378,00002.693327,00003.158583,00002.765808,00002.832383,-00000.375943,-00000.082699,-00000.550681,-00000.069777,-00000.057208,-00000.142761
0000000001396,00002.729072,00002.188970,00002.190614,00003.211301,00002.849559,00002.809806,00002.693326,00003.159236,00002.765879,00002.832544,-00000.375926,-00000.082745,-00000.550713,-00000.069683,-00000.056217,-00000.141140
0000000001397,00002.729410,00002.189487,00002.191061,00003.211684,00002.849914,00002.810286,00002.693353,00003.159444,00002.765576,00002.832773,-00000.375548,-00000.082374,-00000.550786,-00000.069559,-00000.055231,-00000.138947
0000000001398,00002.729587,00002.189984,00002.191383,00003.211942,00002.849935,00002.810651,00002.692989,00003.159637,00002.765274,00002.832910,-00000.375533,-00000.082050,-00000.550813,-00000.069479,-00000.054025,-00000.136478
0000000001399,00002.729875,00002.190424,00002.191764,00003.212267,00002.849874,00002.811060,00002.692649,00003.159814,00002.765017,00002.832743,-00000.375574,-00000.082097,-00000.550876,-00000.069374,-00000.052460,-00000.133523
0000000001400,00002.730026,00002.190847,00002.192401,00003.212487,00002.849892,00002.811370,00002.692702,00003.160341,00002.765123,00002.832859,-00000.375561,-00000.082184,-00000.550898,-00000.069306,-00000.050707,-00000.129970
0000000001401,00002.729908,00002.191585,00002.192362,00003.212764,00002.849840,00002.811355,00002.693138,00003.160130,00002.765629,00002.832716,-00000.375596,-00000.082224,-00000.550952,-00000.069216,-00000.048650,-00000.126366
0000000001402,00002.729673,00002.191582,00002.192542,00003.212589,00002.849855,00002.811257,00002.692821,00003.160216,00002.765356,00002.832815,-00000.375586,-00000.082299,-00000.550971,-00000.069158,-00000.046795,-00000.122615
0000000001403,00002.729573,00002.191847,00002.192872,00003.212825,00002.850174,00002.811244,00002.693192,00003.160761,00002.765787,00002.833420,-00000.375978,-00000.082333,-00000.551016,-00000.069082,-00000.044681,-00000.118822
0000000001404,00002.729374,00002.192207,00002.193025,00003.212675,00002.850549,00002.810798,00002.693647,00003.160834,00002.765555,00002.833504,-00000.376332,-00000.082758,-00000.551033,-00000.069033,-00000.042739,-00000.114903
0000000001405,00002.728925,00002.192070,00002.192942,00003.212876,00002.850458,00002.810424,00002.693601,00003.160573,00002.765559,00002.832930,-00000.376666,-00000.082787,-00000.551071,-00000.068968,-00000.040939,-00000.111311
0000000001406,00002.728755,00002.191651,00002.193073,00003.212749,00002.850415,00002.810044,00002.693625,00003.160635,00002.765361,00002.832639,-00000.376967,-00000.083150,-00000.551085,-00000.068926,-00000.038923,-00000.107250
0000000001407,00002.728374,00002.190809,00002.193003,00003.212194,00002.849611,00002.809726,00002.693223,00003.160412,00002.765365,00002.832150,-00000.377251,-00000.083537,-00000.551118,-00000.068871,-00000.037028,-00000.102741
0000000001408,00002.727866,00002.190090,00002.192751,00003.211723,00002.848849,00002.809040,00002.692881,00003.160465,00002.764834,00002.831540,-00000.377508,-00000.083846,-00000.551130,-00000.068472,-00000.035312,-00000.098195
0000000001409,00002.726816,00002.189010,00002.192691,00003.210888,00002.848165,00002.807681,00002.692538,00003.159913,00002.764111,00002.830761,-00000.377750,-00000.084176,-00000.551158,-00000.068062,-00000.033336,-00000.093631
0000000001410,00002.726021,00002.187672,00002.192840,00003.209761,00002.847879,00002.806733,00002.692248,00003.159595,00002.763296,00002.830241,-00000.377968,-00000.084439,-00000.551168,-00000.067723,-00000.031875,-00000.089398
0000000001411,00002.725853,00002.186390,00002.192789,00003.209413,00002.847297,00002.805939,00002.691956,00003.159488,00002.762681,00002.829578,-00000.378174,-00000.084720,-00000.551555,-00000.067374,-00000.030556,-00000.085150
0000000001412,00002.725176,00002.185251,00002.192553,00003.208454,00002.846690,00002.804770,00002.692071,00003.158855,00002.761987,00002.828773,-00000.378360,-00000.084943,-00000.551926,-00000.067448,-00000.029312,-00000.081184
0000000001413,00002.725395,00002.184159,00002.192872,00003.208158,00002.846195,00002.804457,00002.691823,00003.159126,00002.761101,00002.828572,-00000.378535,-00000.085182,-00000.551893,-00000.067151,-00000.028189,-00000.077204
0000000001414,00002.724819,00002.182827,00002.192671,00003.207704,00002.845316,00002.803824,00002.691558,00003.158950,00002.760510,00002.827886,-00000.378693,-00000.085373,-00000.551846,-00000.066851,-00000.027130,-00000.073465
0000000001415,00002.723918,00002.181898,00002.192580,00003.207089,00002.844894,00002.802832,00002.691709,00003.158456,00002.760118,00002.827352,-00000.378843,-00000.085576,-00000.551818,-00000.066598,-00000.026174,-00000.070077
0000000001416,00002.723064,00002.181126,00002.192409,00003.207066,00002.844508,00002.802294,00002.691847,00003.157943,00002.759978,00002.826405,-00000.378977,-00000.085738,-00000.552141,-00000.066706,-00000.025273,-00000.066894
0000000001417,00002.722660,00002.179973,00002.192694,00003.206179,00002.844149,00002.801449,00002.691613,00003.157522,00002.758919,00002.825950,-00000.379105,-00000.085912,-00000.552479,-00000.066490,-00000.024459,-00000.064010
0000000001418,00002.721571,00002.178953,00002.192549,00003.205797,00002.844184,00002.800628,00002.691730,00003.157448,00002.758800,00002.825507,-00000.379219,-00000.086050,-00000.552391,-00000.066582,-00000.023691,-00000.060938
0000000001419,00002.720863,00002.177971,00002.192066,00003.205405,00002.843878,00002.799909,00002.691893,00003.157090,00002.758624,00002.825120,-00000.379327,-00000.086197,-00000.552317,-00000.066761,-00000.022998,-00000.058120
0000000001420,00002.719936,00002.177103,00002.191942,00003.205079,00002.843182,00002.799572,00002.691630,00003.156664,00002.758160,00002.824743,-00000.379425,-00000.086315,-00000.552242,-00000.066839,-00000.022345,-00000.055504
0000000001421,00002.719334,00002.176267,00002.191894,00003.205108,00002.842559,00002.799323,00002.691407,00003.156359,00002.757647,00002.824413,-00000.379517,-00000.086440,-00000.552178,-00000.066992,-00000.021755,-00000.053105
0000000001422,00002.718907,00002.175528,00002.191788,00003.204468,00002.842692,00002.798674,00002.691545,00003.155997,00002.757252,00002.824093,-00000.379600,-00000.086540,-00000.552115,-00000.066696,-00000.021199,-00000.050879
0000000001423,00002.718757,00002.174453,00002.192110,00003.203768,00002.842524,00002.798462,00002.691355,00003.156100,00002.756453,00002.824175,-00000.379679,-00000.086647,-00000.552423,-00000.066463,-00000.020697,-00000.048837
0000000001424,00002.718757,00002.173461,00002.192383,00003.203223,00002.842274,00002.798272,00002.691110,00003.156517,00002.756116,00002.824264,-00000.379749,-00000.086732,-00000.552732,-00000.066211,-00000.020586,-00000.046941
0000000001425,00002.718267,00002.172909,00002.192294,00003.202626,00002.842495,00002.797728,00002.691311,00003.156605,00002.755799,00002.823971,-00000.379816,-00000.086823,-00000.552632,-00000.066375,-00000.020522,-00000.045203
0000000001426,00002.717904,00002.172428,00002.192164,00003.202525,00002.842645,00002.797204,00002.691466,00003.156597,00002.755875,00002.824048,-00000.379876,-00000.086896,-00000.552532,-00000.066523,-00000.020428,-00000.043589
0000000001427,00002.717486,00002.171958,00002.192088,00003.202017,00002.842469,00002.796741,00002.691637,00003.156309,00002.755967,00002.823798,-00000.379933,-00000.086973,-00000.552447,-00000.066301,-00000.020373,-00000.042109
0000000001428,00002.717177,00002.171548,00002.191977,00003.201568,00002.842235,00002.796295,00002.691768,00003.155939,00002.755670,00002.823500,-00000.379984,-00000.087035,-00000.552362,-00000.066427,-00000.020292,-00000.040735
0000000001429,00002.716822,00002.170785,00002.191913,00003.201136,00002.842085,00002.795901,00002.691914,00003.155694,00002.755386,00002.823288,-00000.380033,-00000.087101,-00000.552289,-00000.066600,-00000.020608,-00000.039475
0000000001430,00002.716922,00002.170436,00002.191818,00003.201117,00002.841523,00002.795884,00002.691663,00003.155380,00002.755132,00002.822672,-00000.380076,-00000.087153,-00000.552217,-00000.066707,-00000.020540,-00000.038306
0000000001431,00002.716982,00002.169787,00002.192126,00003.200749,00002.841033,00002.795911,00002.691424,00003.155897,00002.754890,00002.822491,-00000.380118,-00000.087209,-00000.552155,-00000.066855,-00000.020809,-00000.037233
0000000001432,00002.716704,00002.169490,00002.192046,00003.200369,00002.840916,00002.795534,00002.691573,00003.155629,00002.754674,00002.822329,-00000.380155,-00000.087254,-00000.552456,-00000.066946,-00000.021114,-00000.036238
0000000001433,00002.716392,00002.168574,00002.192308,00003.200056,00002.840862,00002.795557,00002.691370,00003.155706,00002.754468,00002.822538,-00000.380190,-00000.087302,-00000.552766,-00000.067072,-00000.021343,-00000.035325
0000000001434,00002.716519,00002.167958,00002.192239,00003.200096,00002.840400,00002.795599,00002.691134,00003.155841,00002.754285,00002.822763,-00000.380221,-00000.087340,-00000.552660,-00000.067149,-00000.021602,-00000.034477
0000000001435,00002.716253,00002.167542,00002.192100,00003.199829,00002.839991,00002.795619,00002.690961,00003.155907,00002.754109,00002.822578,-00000.380251,-00000.087381,-00000.552924,-00000.067256,-00000.021797,-00000.033700
0000000001436,00002.715998,00002.167380,00002.192041,00003.199863,00002.839598,00002.795654,00002.691123,00003.155659,00002.754316,00002.822407,-00000.380278,-00000.087413,-00000.552833,-00000.067323,-00000.021655,-00000.032978
0000000001437,00002.715410,00002.167388,00002.191560,00003.199999,00002.839250,00002.795308,00002.690976,00003.155352,00002.754167,00002.822249,-00000.380304,-00000.087448,-00000.553058,-00000.067414,-00000.021821,-00000.032316
0000000001438,00002.714829,00002.166888,00002.191147,00003.199665,00002.839278,00002.794613,00002.691114,00003.155141,00002.753980,00002.822104,-00000.380327,-00000.087475,-00000.552981,-00000.067470,-00000.022063,-00000.031702
0000000001439,00002.714691,00002.166169,00002.191463,00003.199418,00002.838982,00002.794681,00002.690988,00003.155242,00002.753490,00002.821970,-00000.380348,-00000.087505,-00000.553172,-00000.067547,-00000.022204,-00000.030776
0000000001440,00002.714560,00002.166106,00002.191475,00003.199497,00002.839006,00002.794452,00002.691106,00003.155425,00002.753693,00002.821845,-00000.380368,-00000.087528,-00000.553107,-00000.067595,-00000.022410,-00000.029890
0000000001441,00002.714805,00002.165495,00002.191743,00003.199286,00002.839116,00002.794510,00002.690999,00003.155512,00002.753276,00002.822094,-00000.380386,-00000.087553,-00000.553270,-00000.067661,-00000.022167,-00000.029102
0000000001442,00002.714694,00002.164715,00002.192116,00003.198990,00002.839137,00002.794315,00002.690736,00003.155668,00002.752724,00002.822351,-00000.380403,-00000.087573,-00000.553214,-00000.067702,-00000.021980,-00000.027985
0000000001443,00002.714902,00002.164195,00002.192345,00003.198811,00002.839231,00002.794364,00002.690645,00003.155741,00002.752732,00002.822563,-00000.380418,-00000.087595,-00000.552990,-00000.067758,-00000.021773,-00000.026951
0000000001444,00002.714807,00002.163894,00002.192299,00003.198559,00002.839248,00002.794198,00002.690784,00003.155874,00002.752624,00002.822419,-00000.380433,-00000.087612,-00000.553305,-00000.067793,-00000.021614,-00000.026001
0000000001445,00002.714622,00002.163813,00002.192131,00003.198407,00002.839328,00002.793515,00002.691070,00003.155574,00002.752268,00002.822237,-00000.380446,-00000.087630,-00000.553114,-00000.067841,-00000.021438,-00000.025120
0000000001446,00002.714541,00002.163558,00002.192092,00003.198192,00002.839343,00002.793373,00002.691188,00003.155324,00002.752177,00002.822114,-00000.380458,-00000.087644,-00000.553382,-00000.067870,-00000.021302,-00000.024311
0000000001447,00002.714021,00002.163489,00002.191949,00003.198062,00002.839411,00002.793154,00002.691431,00003.155069,00002.752236,00002.822321,-00000.380469,-00000.087660,-00000.553220,-00000.067911,-00000.021153,-00000.023562
0000000001448,00002.714315,00002.163271,00002.191916,00003.198605,00002.839424,00002.793396,00002.691169,00003.154856,00002.752159,00002.822217,-00000.380480,-00000.087672,-00000.553449,-00000.067936,-00000.021037,-00000.022873
0000000001449,00002.714234,00002.163575,00002.191795,00003.199220,00002.839482,00002.793573,00002.691013,00003.154638,00002.752209,00002.822031,-00000.380489,-00000.087685,-00000.553310,-00000.067971,-00000.020910,-00000.022598
0000000001450,00002.714122,00002.163390,00002.191767,00003.199320,00002.839492,00002.793779,00002.691153,00003.154457,00002.752506,00002.821942,-00000.380498,-00000.087333,-00000.553142,-00000.067630,-00000.021174,-00000.022374
0000000001451,00002.714054,00002.163286,00002.191663,00003.199481,00002.839542,00002.793566,00002.691383,00003.154272,00002.752912,00002.822146,-00000.380506,-00000.086982,-00000.553024,-00000.067659,-00000.021428,-00000.022503
0000000001452,00002.713958,00002.163129,00002.191639,00003.199565,00002.839551,00002.793742,00002.691502,00003.154118,00002.753164,00002.822071,-00000.380151,-00000.087044,-00000.552881,-00000.067731,-00000.021653,-00000.022675
0000000001453,00002.713900,00002.162677,00002.191913,00003.199340,00002.839593,00002.793924,00002.691335,00003.154323,00002.753147,00002.822245,-00000.379795,-00000.087108,-00000.552781,-00000.067756,-00000.021870,-00000.023147
0000000001454,00002.713818,00002.162180,00002.191893,00003.199049,00002.839601,00002.794073,00002.691073,00003.154555,00002.752999,00002.822543,-00000.379855,-00000.086799,-00000.552659,-00000.067818,-00000.022424,-00000.023657
0000000001455,00002.714131,00002.162159,00002.191764,00003.199219,00002.839274,00002.794228,00002.690931,00003.154729,00002.752985,00002.822691,-00000.379915,-00000.086853,-00000.552573,-00000.067839,-00000.022971,-00000.024059
0000000001456,00002.714062,00002.162099,00002.191747,00003.199335,00002.839280,00002.794355,00002.690709,00003.154927,00002.752859,00002.822945,-00000.379604,-00000.086952,-00000.552470,-00000.067529,-00000.023443,-00000.024855
0000000001457,00002.714329,00002.162081,00002.192000,00003.199480,00002.839365,00002.794487,00002.690588,00003.155075,00002.752846,00002.823071,-00000.379292,-00000.086998,-00000.552397,-00000.067547,-00000.023909,-00000.025197
0000000001458,00002.714632,00002.162029,00002.191985,00003.199578,00002.839370,00002.794958,00002.690398,00003.155243,00002.752739,00002.823288,-00000.379390,-00000.087083,-00000.552671,-00000.067283,-00000.024311,-00000.025513
0000000001459,00002.714496,00002.162014,00002.191837,00003.199702,00002.839442,00002.794708,00002.690658,00003.155007,00002.753091,00002.823395,-00000.379487,-00000.087122,-00000.552972,-00000.067298,-00000.024707,-00000.025804
0000000001460,00002.714392,00002.162333,00002.191825,00003.200148,00002.839447,00002.794746,00002.690859,00003.154787,00002.753363,00002.823579,-00000.379207,-00000.087194,-00000.552843,-00000.067436,-00000.025049,-00000.026073
0000000001461,00002.714277,00002.162320,00002.191699,00003.199890,00002.839871,00002.794895,00002.691081,00003.154949,00002.753663,00002.824033,-00000.378927,-00000.087228,-00000.552737,-00000.067449,-00000.025750,-00000.026321
0000000001462,00002.714551,00002.162228,00002.192051,00003.199907,00002.840238,00002.794928,00002.690889,00003.155487,00002.753894,00002.824553,-00000.379052,-00000.086926,-00000.552627,-00000.067566,-00000.026041,-00000.026549
0000000001463,00002.714452,00002.162217,00002.192307,00003.199688,00002.840599,00002.795055,00002.691078,00003.155625,00002.754149,00002.824939,-00000.378814,-00000.086955,-00000.552899,-00000.067578,-00000.026637,-00000.026760
0000000001464,00002.715048,00002.162140,00002.192607,00003.200066,00002.840911,00002.795446,00002.690915,00003.156083,00002.754709,00002.825381,-00000.378557,-00000.087061,-00000.553168,-00000.068040,-00000.027248,-00000.027318
0000000001465,00002.715327,00002.162130,00002.192462,00003.200605,00002.840855,00002.795917,00002.690712,00003.156200,00002.755289,00002.825348,-00000.378354,-00000.087085,-00000.553399,-00000.068050,-00000.027755,-00000.027860
0000000001466,00002.715472,00002.162064,00002.192717,00003.200926,00002.841121,00002.795886,00002.690574,00003.156228,00002.755765,00002.825724,-00000.378136,-00000.086813,-00000.553629,-00000.068081,-00000.028638,-00000.028335
0000000001467,00002.715710,00002.162056,00002.192957,00003.201385,00002.841437,00002.796288,00002.690401,00003.156690,00002.756259,00002.826058,-00000.377963,-00000.086470,-00000.553826,-00000.068089,-00000.029070,-00000.028796
0000000001468,00002.715833,00002.162000,00002.192811,00003.202021,00002.841663,00002.796624,00002.690283,00003.156713,00002.757027,00002.826016,-00000.377777,-00000.086601,-00000.553658,-00000.068115,-00000.029821,-00000.029200
0000000001469,00002.716398,00002.161993,00002.193015,00003.202411,00002.841932,00002.796966,00002.690136,00003.157107,00002.757448,00002.826301,-00000.377630,-00000.086310,-00000.553463,-00000.068122,-00000.030552,-00000.029956
0000000001470,00002.716503,00002.161945,00002.193254,00003.202228,00002.842124,00002.796890,00002.690036,00003.157127,00002.757376,00002.826627,-00000.377472,-00000.086059,-00000.553683,-00000.068145,-00000.031191,-00000.030663
0000000001471,00002.716621,00002.162302,00002.193064,00003.202923,00002.842716,00002.797181,00002.690274,00003.156737,00002.758097,00002.826507,-00000.377347,-00000.086174,-00000.553517,-00000.068151,-00000.032176,-00000.031306
0000000001472,00002.716710,00002.162624,00002.192905,00003.203492,00002.843243,00002.797116,00002.690551,00003.156754,00002.758762,00002.826785,-00000.377212,-00000.085960,-00000.553704,-00000.068170,-00000.033084,-00000.031908
0000000001473,00002.716811,00002.162565,00002.192744,00003.204084,00002.843746,00002.797363,00002.690753,00003.156784,00002.759375,00002.827045,-00000.377105,-00000.085694,-00000.553563,-00000.068538,-00000.033922,-00000.032456
0000000001474,00002.716524,00002.162839,00002.192608,00003.204568,00002.844195,00002.797671,00002.690989,00003.156798,00002.759941,00002.827282,-00000.376991,-00000.085512,-00000.553360,-00000.068554,-00000.034694,-00000.032968
0000000001475,00002.716972,00002.163152,00002.192834,00003.205435,00002.844986,00002.798245,00002.691162,00003.157187,00002.760463,00002.827503,-00000.376900,-00000.085649,-00000.553602,-00000.068867,-00000.035408,-00000.033434
0000000001476,00002.717454,00002.163022,00002.193081,00003.205484,00002.845368,00002.798507,00002.691000,00003.157562,00002.760582,00002.828068,-00000.376802,-00000.085857,-00000.553429,-00000.069244,-00000.036066,-00000.033870
0000000001477,00002.717473,00002.163288,00002.193273,00003.205859,00002.846042,00002.798632,00002.691147,00003.157530,00002.761027,00002.828982,-00000.376725,-00000.085611,-00000.553636,-00000.069510,-00000.036673,-00000.034267
0000000001478,00002.717520,00002.163541,00002.193121,00003.206264,00002.846367,00002.799218,00002.691372,00003.157487,00002.761491,00002.829099,-00000.376642,-00000.085788,-00000.553851,-00000.069831,-00000.037596,-00000.034638
0000000001479,00002.717899,00002.163405,00002.193284,00003.206584,00002.846578,00002.799324,00002.691134,00003.157460,00002.761507,00002.829152,-00000.376576,-00000.085941,-00000.554027,-00000.070058,-00000.038476,-00000.035339
0000000001480,00002.717939,00002.163257,00002.193517,00003.206203,00002.846854,00002.799460,00002.691325,00003.157423,00002.761539,00002.829252,-00000.376505,-00000.085729,-00000.554210,-00000.070694,-00000.039624,-00000.036018
0000000001481,00002.717898,00002.163141,00002.193294,00003.205749,00002.846308,00002.799551,00002.691123,00003.157400,00002.761189,00002.828934,-00000.376087,-00000.085497,-00000.554360,-00000.071613,-00000.040010,-00000.036615
0000000001482,00002.717570,00002.163015,00002.193129,00003.205425,00002.845818,00002.799304,00002.691286,00003.157005,00002.760491,00002.828294,-00000.375301,-00000.085316,-00000.554516,-00000.072517,-00000.038448,-00000.037192
0000000001483,00002.717173,00002.162554,00002.192939,00003.204676,00002.845353,00002.798293,00002.691476,00003.156260,00002.758743,00002.827660,-00000.374219,-00000.084756,-00000.554643,-00000.073299,-00000.035149,-00000.037700
0000000001484,00002.717256,00002.161721,00002.192799,00003.204037,00002.844573,00002.797720,00002.691252,00003.155924,00002.753795,00002.827115,-00000.372824,-00000.084239,-00000.554776,-00000.074431,-00000.029466,-00000.038918
0000000001485,00002.716555,00002.160603,00002.192274,00003.203036,00002.843814,00002.797222,00002.691052,00003.155290,00002.749041,00002.825850,-00000.370815,-00000.083399,-00000.555610,-00000.076185,-00000.023029,-00000.040438
0000000001486,00002.715900,00002.159531,00002.191792,00003.202130,00002.842788,00002.796371,00002.690861,00003.154641,00002.744829,00002.824661,-00000.368539,-00000.082596,-00000.556449,-00000.078238,-00000.016377,-00000.042201
0000000001487,00002.715303,00002.158216,00002.191708,00003.200915,00002.842142,00002.795222,00002.690690,00003.154101,00002.740419,00002.823947,-00000.365740,-00000.081881,-00000.557159,-00000.080457,-00000.009809,-00000.043495
0000000001488,00002.714383,00002.156578,00002.191298,00003.199781,00002.841268,00002.793772,00002.690528,00003.153186,00002.736471,00002.822934,-00000.363077,-00000.080835,-00000.557873,-00000.082567,-00000.003421,-00000.044270
0000000001489,00002.713512,00002.155096,00002.190864,00003.198747,00002.840355,00002.789891,00002.690382,00003.152001,00002.732717,00002.821601,-00000.360331,-00000.079864,-00000.558477,-00000.084456,00000.002170,-00000.045009
0000000001490,00002.712366,00002.153339,00002.190515,00003.197781,00002.839611,00002.785755,00002.690607,00003.150859,00002.728993,00002.820376,-00000.357702,-00000.078973,-00000.559085,-00000.086615,00000.007246,-00000.045305
0000000001491,00002.711262,00002.151714,00002.190508,00003.196538,00002.839197,00002.780637,00002.690846,00003.149850,00002.725434,00002.819240,-00000.355002,-00000.077783,-00000.559600,-00000.088586,00000.012368,-00000.045209
0000000001492,00002.709923,00002.149493,00002.190573,00003.195716,00002.838201,00002.774939,00002.690674,00003.148878,00002.720087,00002.817835,-00000.352400,-00000.076663,-00000.559754,-00000.090424,00000.017415,-00000.044736
0000000001493,00002.708621,00002.146659,00002.190930,00003.194658,00002.837123,00002.769494,00002.690515,00003.148382,00002.714518,00002.817231,-00000.350101,-00000.075287,-00000.559467,-00000.091739,00000.021776,-00000.043566
0000000001494,00002.706030,00002.143679,00002.190986,00003.193595,00002.836275,00002.763917,00002.690369,00003.147555,00002.709240,00002.816035,-00000.347887,-00000.073970,-00000.559236,-00000.092578,00000.025346,-00000.041349
0000000001495,00002.703107,00002.140904,00002.190564,00003.193057,00002.834994,00002.758919,00002.690233,00003.146406,00002.704137,00002.814795,-00000.345930,-00000.072799,-00000.558991,-00000.093334,00000.027970,-00000.038539
0000000001496,00002.699813,00002.138004,00002.190974,00003.191789,00002.834272,00002.753809,00002.690109,00003.145702,00002.699644,00002.814139,-00000.343682,-00000.071315,-00000.558794,-00000.094049,00000.030284,-00000.035563
0000000001497,00002.696237,00002.135279,00002.190615,00003.190606,00002.832819,00002.748828,00002.689993,00003.144725,00002.694936,00002.813084,-00000.341653,-00000.070318,-00000.558586,-00000.094693,00000.032155,-00000.032445
0000000001498,00002.693433,00002.132448,00002.190965,00003.189890,00002.831479,00002.744478,00002.689525,00003.144125,00002.690386,00002.812163,-00000.339740,-00000.069417,-00000.558418,-00000.095301,00000.033400,-00000.029186
0000000001499,00002.690751,00002.129402,00002.191384,00003.189245,00002.830242,00002.740601,00002.689426,00003.143656,00002.686016,00002.811265,-00000.338013,-00000.068569,-00000.557878,-00000.095849,00000.034630,-00000.026169
0000000001500,00002.688001,00002.126992,00002.191319,00003.188635,00002.829464,00002.736535,00002.689753,00003.142783,00002.682505,00002.810481,-00000.336383,-00000.067802,-00000.557373,-00000.096367,00000.034964,-00000.023032
0000000001501,00002.685355,00002.124399,00002.191314,00003.187723,00002.828411,00002.732872,00002.689669,00003.142021,00002.679147,00002.809353,-00000.334913,-00000.067079,-00000.556913,-00000.096834,00000.034922,-00000.020464
0000000001502,00002.683377,00002.121985,00002.191621,00003.186841,00002.827748,00002.729410,00002.689585,00003.141277,00002.675796,00002.808686,-00000.333889,-00000.066427,-00000.556483,-00000.097275,00000.034481,-00000.018156
0000000001503,00002.681124,00002.119777,00002.191616,00003.186428,00002.827215,00002.726291,00002.689876,00003.140628,00002.672937,00002.808089,-00000.333000,-00000.065812,-00000.556454,-00000.097309,00000.033357,-00000.016333
0000000001504,00002.679440,00002.117722,00002.191878,00003.186040,00002.826651,00002.723707,00002.689804,00003.140358,00002.670447,00002.807521,-00000.332491,-00000.065619,-00000.556450,-00000.097322,00000.031893,-00000.014731
0000000001505,00002.677522,00002.115480,00002.191874,00003.185325,00002.826197,00002.721052,00002.689689,00003.139806,00002.668013,00002.807012,-00000.332460,-00000.065821,-00000.556426,-00000.097351,00000.029848,-00000.013541
0000000001506,00002.675726,00002.113730,00002.191733,00003.184632,00002.825717,00002.718490,00002.689628,00003.138850,00002.666256,00002.806166,-00000.332390,-00000.066020,-00000.556423,-00000.097362,00000.027513,-00000.012903
0000000001507,00002.674094,00002.111822,00002.191730,00003.184024,00002.825330,00002.716230,00002.689530,00003.138380,00002.664185,00002.805733,-00000.332726,-00000.066192,-00000.556765,-00000.097387,00000.025047,-00000.012253
0000000001508,00002.672927,00002.109969,00002.191974,00003.183797,00002.824921,00002.714411,00002.689478,00003.138292,00002.662326,00002.805375,-00000.333029,-00000.066724,-00000.557125,-00000.097396,00000.022697,-00000.011710
0000000001509,00002.671175,00002.108345,00002.191608,00003.183279,00002.824229,00002.712487,00002.689395,00003.137529,00002.660925,00002.804644,-00000.333315,-00000.066870,-00000.557054,-00000.097417,00000.020597,-00000.011157
0000000001510,00002.669819,00002.107493,00002.191452,00003.183085,00002.824244,00002.710939,00002.689713,00003.137454,00002.660068,00002.804702,-00000.333573,-00000.066960,-00000.557360,-00000.097425,00000.018596,-00000.011057
0000000001511,00002.669053,00002.106473,00002.191867,00003.183007,00002.824018,00002.709664,00002.689643,00003.137530,00002.658876,00002.804806,-00000.333817,-00000.067085,-00000.557299,-00000.097443,00000.016809,-00000.011312
0000000001512,00002.667898,00002.105385,00002.191734,00003.183205,00002.823668,00002.708346,00002.689551,00003.137104,00002.658147,00002.804492,-00000.334036,-00000.067161,-00000.557198,-00000.097449,00000.014742,-00000.011590
0000000001513,00002.666883,00002.104517,00002.191724,00003.183139,00002.823475,00002.707260,00002.689491,00003.136806,00002.657494,00002.804580,-00000.334243,-00000.067267,-00000.557146,-00000.097465,00000.012495,-00000.011806
0000000001514,00002.665901,00002.103591,00002.191974,00003.183308,00002.823177,00002.706501,00002.689413,00003.136805,00002.656511,00002.804313,-00000.334430,-00000.067333,-00000.557059,-00000.097833,00000.010011,-00000.012043
0000000001515,00002.665036,00002.102851,00002.191966,00003.183614,00002.823013,00002.705940,00002.689361,00003.136552,00002.655592,00002.804025,-00000.334244,-00000.067423,-00000.557015,-00000.098209,00000.007735,-00000.012228
0000000001516,00002.664926,00002.101701,00002.191816,00003.183032,00002.822759,00002.704930,00002.688932,00003.136189,00002.655118,00002.803798,-00000.334403,-00000.067478,-00000.557304,-00000.098523,00000.004894,-00000.012792
0000000001517,00002.664915,00002.101434,00002.191809,00003.182930,00002.822982,00002.704090,00002.689251,00003.135973,00002.656150,00002.803553,-00000.334245,-00000.067192,-00000.557629,-00000.098480,00000.002231,-00000.013674
0000000001518,00002.665184,00002.100817,00002.192044,00003.182797,00002.822766,00002.703594,00002.689248,00003.136026,00002.657560,00002.803360,-00000.334017,-00000.066877,-00000.557513,-00000.098384,-00000.000550,-00000.014518
0000000001519,00002.665175,00002.100590,00002.192037,00003.183073,00002.822956,00002.703241,00002.689157,00003.135842,00002.659165,00002.803151,-00000.333882,-00000.066634,-00000.557427,-00000.098710,-00000.002817,-00000.015632
0000000001520,00002.665766,00002.100427,00002.191875,00003.183686,00002.823135,00002.702818,00002.689155,00003.135525,00002.660365,00002.802987,-00000.334051,-00000.066365,-00000.557327,-00000.098992,-00000.005184,-00000.016712
0000000001521,00002.665759,00002.100234,00002.191507,00003.184283,00002.823297,00002.702518,00002.689077,00003.135369,00002.661731,00002.802809,-00000.333937,-00000.066158,-00000.557254,-00000.099269,-00000.007477,-00000.017661
0000000001522,00002.665900,00002.100096,00002.191368,00003.184805,00002.823449,00002.702884,00002.689076,00003.135462,00002.663115,00002.802669,-00000.333718,-00000.065929,-00000.557169,-00000.099509,-00000.009493,-00000.018581
0000000001523,00002.666256,00002.099931,00002.191418,00003.185313,00002.823587,00002.703354,00002.689372,00003.135328,00002.664278,00002.802518,-00000.333620,-00000.065753,-00000.557107,-00000.099745,-00000.011807,-00000.019388
0000000001524,00002.666376,00002.099813,00002.191300,00003.185395,00002.824079,00002.703665,00002.689733,00003.135045,00002.665457,00002.802398,-00000.333434,-00000.065558,-00000.557035,-00000.099949,-00000.013886,-00000.020171
0000000001525,00002.666317,00002.099673,00002.191342,00003.185828,00002.824559,00002.704791,00002.689623,00003.134931,00002.666447,00002.802269,-00000.333351,-00000.065408,-00000.556982,-00000.100151,-00000.016219,-00000.021221
0000000001526,00002.666419,00002.099936,00002.191242,00003.186260,00002.824979,00002.706144,00002.689931,00003.134690,00002.667450,00002.802531,-00000.333192,-00000.065605,-00000.556921,-00000.100324,-00000.018351,-00000.022251
0000000001527,00002.667094,00002.100179,00002.191278,00003.186628,00002.825750,00002.707465,00002.690200,00003.134956,00002.668293,00002.802784,-00000.333121,-00000.065477,-00000.556876,-00000.100495,-00000.020700,-00000.023508
0000000001528,00002.667543,00002.100040,00002.191192,00003.186633,00002.826470,00002.708618,00002.690099,00003.134388,00002.669147,00002.802644,-00000.332986,-00000.065282,-00000.556824,-00000.100643,-00000.023241,-00000.024747
0000000001529,00002.668481,00002.099885,00002.191586,00003.187310,00002.826764,00002.710105,00002.689965,00003.134614,00002.669501,00002.802496,-00000.332926,-00000.065173,-00000.556785,-00000.100789,-00000.025604,-00000.026180
0000000001530,00002.668863,00002.100129,00002.191513,00003.188040,00002.827376,00002.712537,00002.690242,00003.134493,00002.670229,00002.802377,-00000.332811,-00000.065007,-00000.556741,-00000.100915,-00000.028129,-00000.027597
0000000001531,00002.669299,00002.100359,00002.191485,00003.188616,00002.827989,00002.714892,00002.690128,00003.134323,00002.670893,00002.802251,-00000.332760,-00000.065277,-00000.556708,-00000.101039,-00000.030503,-00000.028454
0000000001532,00002.669987,00002.100930,00002.191786,00003.189237,00002.828874,00002.716962,00002.690363,00003.134583,00002.671512,00002.802512,-00000.332662,-00000.065136,-00000.557033,-00000.101146,-00000.033016,-00000.029298
0000000001533,00002.670358,00002.101852,00002.191762,00003.189727,00002.829396,00002.718604,00002.690266,00003.134076,00002.672078,00002.802406,-00000.332618,-00000.065003,-00000.557368,-00000.101252,-00000.035400,-00000.030028
0000000001534,00002.670581,00002.102701,00002.191655,00003.190256,00002.830148,00002.720366,00002.690467,00003.133934,00002.672968,00002.802628,-00000.332535,-00000.064883,-00000.557282,-00000.101343,-00000.037539,-00000.030384
0000000001535,00002.671260,00002.103122,00002.191998,00003.190311,00002.830955,00002.722127,00002.690747,00003.133865,00002.673450,00002.802900,-00000.332498,-00000.064770,-00000.557204,-00000.101433,-00000.039569,-00000.030642
0000000001536,00002.671813,00002.103482,00002.192270,00003.190398,00002.831234,00002.723627,00002.690555,00003.134107,00002.673844,00002.803089,-00000.332427,-00000.064668,-00000.557493,-00000.101511,-00000.041390,-00000.030945
0000000001537,00002.672027,00002.103841,00002.192561,00003.190445,00002.831558,00002.725126,00002.690431,00003.134048,00002.674254,00002.803321,-00000.332395,-00000.064571,-00000.557427,-00000.101587,-00000.043117,-00000.031527
0000000001538,00002.672861,00002.104510,00002.192793,00003.191245,00002.831795,00002.726766,00002.690267,00003.134254,00002.674590,00002.803482,-00000.332335,-00000.064484,-00000.557311,-00000.101653,-00000.044668,-00000.031785
0000000001539,00002.673043,00002.105179,00002.193041,00003.191647,00002.832071,00002.728404,00002.690162,00003.134204,00002.674939,00002.803316,-00000.332308,-00000.064402,-00000.557255,-00000.101719,-00000.046139,-00000.031918
0000000001540,00002.673027,00002.105748,00002.193238,00003.191966,00002.832635,00002.729438,00002.690385,00003.134017,00002.675588,00002.803453,-00000.332256,-00000.064328,-00000.557156,-00000.101775,-00000.047458,-00000.032138
0000000001541,00002.673909,00002.105955,00002.193812,00003.192308,00002.833233,00002.733372,00002.690295,00003.134700,00002.675885,00002.804038,-00000.332233,-00000.064258,-00000.557108,-00000.101830,-00000.048710,-00000.032251
0000000001542,00002.674620,00002.106439,00002.193980,00003.192579,00002.833350,00002.736792,00002.690123,00003.134903,00002.676075,00002.804154,-00000.332190,-00000.064195,-00000.557386,-00000.101878,-00000.050197,-00000.032438
0000000001543,00002.675008,00002.106978,00002.194106,00003.192508,00002.833859,00002.739415,00002.690409,00003.135122,00002.676691,00002.804289,-00000.332170,-00000.064136,-00000.557708,-00000.101925,-00000.051625,-00000.032534
0000000001544,00002.675614,00002.107391,00002.194249,00003.192376,00002.834685,00002.742326,00002.690262,00003.135295,00002.677215,00002.804751,-00000.332133,-00000.064445,-00000.557945,-00000.101966,-00000.052891,-00000.032694
0000000001545,00002.676306,00002.107849,00002.194719,00003.193041,00002.835118,00002.745286,00002.690143,00003.135844,00002.677739,00002.805229,-00000.332116,-00000.064757,-00000.558219,-00000.102006,-00000.054107,-00000.032776
0000000001546,00002.676822,00002.108563,00002.195203,00003.193291,00002.835821,00002.748126,00002.690381,00003.136354,00002.678185,00002.805622,-00000.332085,-00000.064657,-00000.558421,-00000.102041,-00000.055184,-00000.032911
0000000001547,00002.677412,00002.108953,00002.195604,00003.193494,00002.836553,00002.750646,00002.690279,00003.136821,00002.678631,00002.806029,-00000.332070,-00000.064560,-00000.558655,-00000.102075,-00000.055857,-00000.033344
0000000001548,00002.677851,00002.109198,00002.196016,00003.194070,00002.837151,00002.753064,00002.690482,00003.137255,00002.679011,00002.806364,-00000.332406,-00000.064838,-00000.558826,-00000.102105,-00000.056411,-00000.033459
0000000001549,00002.677990,00002.109893,00002.195994,00003.194243,00002.837774,00002.754846,00002.690758,00003.137290,00002.679391,00002.806347,-00000.332757,-00000.065118,-00000.559388,-00000.102497,-00000.056983,-00000.033827
0000000001550,00002.678364,00002.110465,00002.195982,00003.194371,00002.837921,00002.754365,00002.690568,00003.137297,00002.679715,00002.806269,-00000.333043,-00000.065355,-00000.559534,-00000.102522,-00000.057455,-00000.034288
0000000001551,00002.678483,00002.110694,00002.196326,00003.194155,00002.838088,00002.753705,00002.690440,00003.137327,00002.679675,00002.806255,-00000.333341,-00000.065956,-00000.560012,-00000.102493,-00000.057943,-00000.034239
0000000001552,00002.678438,00002.111180,00002.195953,00003.194627,00002.837850,00002.753296,00002.690278,00003.136970,00002.679951,00002.805826,-00000.333948,-00000.066520,-00000.560499,-00000.102514,-00000.058344,-00000.034269
0000000001553,00002.678902,00002.111375,00002.196246,00003.194806,00002.837630,00002.752734,00002.690170,00003.136995,00002.680280,00002.805814,-00000.334565,-00000.066669,-00000.560906,-00000.102489,-00000.058396,-00000.034590
0000000001554,00002.678864,00002.111427,00002.196291,00003.195207,00002.837427,00002.752386,00002.690032,00003.137054,00002.680514,00002.805449,-00000.335081,-00000.067150,-00000.561321,-00000.102508,-00000.058375,-00000.034978
0000000001555,00002.678896,00002.111955,00002.196178,00003.195360,00002.837240,00002.751907,00002.690302,00003.137076,00002.680794,00002.805076,-00000.335606,-00000.067639,-00000.561667,-00000.102487,-00000.058057,-00000.035251
0000000001556,00002.679226,00002.111999,00002.196217,00003.195339,00002.837067,00002.751611,00002.690185,00003.137126,00002.680994,00002.805128,-00000.336408,-00000.068048,-00000.562021,-00000.102502,-00000.057314,-00000.035581
0000000001557,00002.679253,00002.112449,00002.196120,00003.195832,00002.837270,00002.750841,00002.690415,00003.136782,00002.681595,00002.805173,-00000.337218,-00000.068465,-00000.562315,-00000.102484,-00000.057043,-00000.035814
0000000001558,00002.679172,00002.112849,00002.195790,00003.195813,00002.837123,00002.750226,00002.690678,00003.136462,00002.682128,00002.805217,-00000.337901,-00000.068813,-00000.562616,-00000.102497,-00000.056410,-00000.036458
0000000001559,00002.678832,00002.113595,00002.195708,00003.196233,00002.837296,00002.752110,00002.690874,00003.136168,00002.682640,00002.805256,-00000.338590,-00000.069168,-00000.562867,-00000.102482,-00000.055816,-00000.037019
0000000001560,00002.679126,00002.113935,00002.195790,00003.196218,00002.837534,00002.754125,00002.691097,00003.136259,00002.682731,00002.805656,-00000.339171,-00000.069827,-00000.563123,-00000.102493,-00000.054915,-00000.037567
0000000001561,00002.679562,00002.113845,00002.195720,00003.195849,00002.837681,00002.755729,00002.690901,00003.136372,00002.682804,00002.806052,-00000.339758,-00000.070130,-00000.563337,-00000.102117,-00000.054047,-00000.038044
0000000001562,00002.679812,00002.114135,00002.195789,00003.195836,00002.837884,00002.757445,00002.691092,00003.136086,00002.683244,00002.806030,-00000.340253,-00000.070328,-00000.563555,-00000.101764,-00000.053279,-00000.038511
0000000001563,00002.679821,00002.114058,00002.195730,00003.195522,00002.838009,00002.758448,00002.691288,00003.136182,00002.683306,00002.806004,-00000.340753,-00000.070948,-00000.563374,-00000.101807,-00000.052540,-00000.039280
0000000001564,00002.679671,00002.114667,00002.195789,00003.195511,00002.838182,00002.759909,00002.691450,00003.135939,00002.683680,00002.806348,-00000.341174,-00000.071479,-00000.563559,-00000.101506,-00000.051887,-00000.040040
0000000001565,00002.680041,00002.114602,00002.195738,00003.195244,00002.838288,00002.761125,00002.691254,00003.136021,00002.684096,00002.806688,-00000.341962,-00000.071645,-00000.563768,-00000.101180,-00000.051258,-00000.041058
0000000001566,00002.680276,00002.115120,00002.195789,00003.195235,00002.838435,00002.762369,00002.691392,00003.136177,00002.684415,00002.806981,-00000.342684,-00000.072097,-00000.563563,-00000.100924,-00000.051064,-00000.041705
0000000001567,00002.680954,00002.115427,00002.195746,00003.195370,00002.838163,00002.763767,00002.691225,00003.136246,00002.684406,00002.807271,-00000.343355,-00000.072600,-00000.563378,-00000.100646,-00000.050892,-00000.042571
0000000001568,00002.681154,00002.115869,00002.195789,00003.195362,00002.838288,00002.765189,00002.691343,00003.136379,00002.685040,00002.807521,-00000.343969,-00000.072623,-00000.563566,-00000.100428,-00000.051090,-00000.043848
0000000001569,00002.681731,00002.116493,00002.195389,00003.195840,00002.838419,00002.766379,00002.691563,00003.136438,00002.685396,00002.807405,-00000.344540,-00000.072688,-00000.563409,-00000.099829,-00000.051305,-00000.044948
0000000001570,00002.682264,00002.116506,00002.195789,00003.196196,00002.838526,00002.767952,00002.691301,00003.136914,00002.685573,00002.807617,-00000.345063,-00000.072708,-00000.563207,-00000.099281,-00000.051474,-00000.046397
0000000001571,00002.682756,00002.116675,00002.196174,00003.196603,00002.839000,00002.769328,00002.691489,00003.137327,00002.685875,00002.808244,-00000.345186,-00000.072763,-00000.563072,-00000.099134,-00000.051658,-00000.047697
0000000001572,00002.683209,00002.117049,00002.196151,00003.196906,00002.839453,00002.770304,00002.691990,00003.137369,00002.686389,00002.808425,-00000.345631,-00000.072780,-00000.562900,-00000.099030,-00000.052164,-00000.049293
0000000001573,00002.683990,00002.117555,00002.196117,00003.197615,00002.839495,00002.771476,00002.691788,00003.137721,00002.687009,00002.808596,-00000.346099,-00000.072827,-00000.562786,-00000.098541,-00000.052683,-00000.050762
0000000001574,00002.684740,00002.117511,00002.196097,00003.197511,00002.839880,00002.772307,00002.691489,00003.137757,00002.687083,00002.809112,-00000.346478,-00000.072841,-00000.562639,-00000.098090,-00000.053114,-00000.052122
0000000001575,00002.685767,00002.117579,00002.196068,00003.197752,00002.839916,00002.773304,00002.691317,00003.138419,00002.687249,00002.809258,-00000.346514,-00000.072882,-00000.562542,-00000.097674,-00000.053919,-00000.053735
0000000001576,00002.686768,00002.117904,00002.196051,00003.198388,00002.839881,00002.774374,00002.691063,00003.138813,00002.687675,00002.809335,-00000.346474,-00000.072893,-00000.562417,-00000.097653,-00000.054649,-00000.055255
0000000001577,00002.687643,00002.118325,00002.196026,00003.198230,00002.840274,00002.774860,00002.691279,00003.139014,00002.687815,00002.809459,-00000.346504,-00000.072928,-00000.561972,-00000.097662,-00000.055697,-00000.056991
0000000001578,00002.688494,00002.119327,00002.196012,00003.198409,00002.840608,00002.775772,00002.691425,00003.139711,00002.687815,00002.809524,-00000.346470,-00000.072938,-00000.561865,-00000.097281,-00000.056681,-00000.058648
0000000001579,00002.689239,00002.120411,00002.195628,00003.199001,00002.840579,00002.776548,00002.691609,00003.139883,00002.688298,00002.809630,-00000.346858,-00000.072967,-00000.561849,-00000.097288,-00000.057573,-00000.060126
0000000001580,00002.689964,00002.120902,00002.195616,00003.199516,00002.840500,00002.777687,00002.691734,00003.140476,00002.688661,00002.809685,-00000.346829,-00000.072976,-00000.561758,-00000.096964,-00000.058411,-00000.061536
0000000001581,00002.690961,00002.121824,00002.195652,00003.200019,00002.840476,00002.778711,00002.691527,00003.140985,00002.689071,00002.809775,-00000.346797,-00000.072638,-00000.561382,-00000.096608,-00000.058807,-00000.063157
0000000001582,00002.691216,00002.122605,00002.195279,00003.200458,00002.840409,00002.779317,00002.691633,00003.140765,00002.689380,00002.809823,-00000.346772,-00000.072645,-00000.560942,-00000.096332,-00000.059158,-00000.064721
0000000001583,00002.691701,00002.123390,00002.195309,00003.200524,00002.840751,00002.779826,00002.691821,00003.140835,00002.689730,00002.810262,-00000.346745,-00000.072358,-00000.560621,-00000.096028,-00000.059495,-00000.065738
0000000001584,00002.692281,00002.124417,00002.195355,00003.201260,00002.841057,00002.780342,00002.691911,00003.141011,00002.689993,00002.810302,-00000.346724,-00000.072001,-00000.560246,-00000.095793,-00000.059431,-00000.066706
0000000001585,00002.693057,00002.125086,00002.195380,00003.202041,00002.840985,00002.781138,00002.691708,00003.141433,00002.690290,00002.810313,-00000.346700,-00000.071756,-00000.559973,-00000.095535,-00000.058992,-00000.067935
0000000001586,00002.694276,00002.125960,00002.195419,00003.203031,00002.840883,00002.781940,00002.691422,00003.141582,00002.690514,00002.810348,-00000.346682,-00000.071453,-00000.559655,-00000.095335,-00000.058575,-00000.069122
0000000001587,00002.694937,00002.126892,00002.195441,00003.204059,00002.840822,00002.782618,00002.691248,00003.141942,00002.690768,00002.810357,-00000.346663,-00000.071244,-00000.559422,-00000.095115,-00000.058202,-00000.070168
0000000001588,00002.695975,00002.127274,00002.195474,00003.204538,00002.841097,00002.783301,00002.691005,00003.142795,00002.690595,00002.810749,-00000.346647,-00000.071349,-00000.559514,-00000.095308,-00000.058209,-00000.071179
0000000001589,00002.696175,00002.128067,00002.195130,00003.205051,00002.841045,00002.783515,00002.691220,00003.142738,00002.690811,00002.810758,-00000.346631,-00000.071171,-00000.559316,-00000.095120,-00000.057891,-00000.071706
0000000001590,00002.696695,00002.128392,00002.195521,00003.205459,00002.841643,00002.784097,00002.691376,00003.143101,00002.691027,00002.811091,-00000.346980,-00000.070897,-00000.559393,-00000.094921,-00000.057172,-00000.072204
0000000001591,00002.697228,00002.129067,00002.195590,00003.206258,00002.841961,00002.784642,00002.691559,00003.143416,00002.691211,00002.811098,-00000.346966,-00000.071109,-00000.559225,-00000.094762,-00000.056176,-00000.072653
0000000001592,00002.697671,00002.129707,00002.195560,00003.206606,00002.842107,00002.785137,00002.691692,00003.143725,00002.691395,00002.810657,-00000.347264,-00000.071239,-00000.559291,-00000.094956,-00000.055564,-00000.073076
0000000001593,00002.698125,00002.130282,00002.195257,00003.207286,00002.842378,00002.785601,00002.691485,00003.143630,00002.691189,00002.810663,-00000.347614,-00000.071419,-00000.559148,-00000.094820,-00000.055078,-00000.073459
0000000001594,00002.698865,00002.130826,00002.195231,00003.207944,00002.842865,00002.786022,00002.691235,00003.144256,00002.690982,00002.810650,-00000.347868,-00000.071529,-00000.559204,-00000.094622,-00000.054194,-00000.073819
0000000001595,00002.699251,00002.131315,00002.195336,00003.208524,00002.843459,00002.786417,00002.691422,00003.144538,00002.691532,00002.810655,-00000.348529,-00000.071683,-00000.559082,-00000.094506,-00000.053419,-00000.074508
0000000001596,00002.699518,00002.131416,00002.194951,00003.208721,00002.843510,00002.786776,00002.691209,00003.145071,00002.692445,00002.810644,-00000.349108,-00000.071777,-00000.559130,-00000.094338,-00000.052666,-00000.075177
0000000001597,00002.700210,00002.131470,00002.195403,00003.209214,00002.844016,00002.787475,00002.691005,00003.145674,00002.693639,00002.810648,-00000.349671,-00000.071907,-00000.559389,-00000.094239,-00000.052006,-00000.075763
0000000001598,00002.700800,00002.131918,00002.195439,00003.209383,00002.844423,00002.787780,00002.690824,00003.146127,00002.694779,00002.810638,-00000.350163,-00000.072350,-00000.559430,-00000.094459,-00000.051728,-00000.075971
0000000001599,00002.701026,00002.132690,00002.195460,00003.209440,00002.845216,00002.787650,00002.691014,00003.146278,00002.696158,00002.811005,-00000.350642,-00000.072824,-00000.560013,-00000.094738,-00000.051528,-00000.076469
0000000001600,00002.701166,00002.133434,00002.195491,00003.209946,00002.845562,00002.788272,00002.691222,00003.146664,00002.697491,00002.810997,-00000.351062,-00000.073201,-00000.560048,-00000.094924,-00000.051291,-00000.077009
0000000001601,00002.701358,00002.134091,00002.195509,00003.210357,00002.846237,00002.788524,00002.691383,00003.147155,00002.698302,00002.811309,-00000.351470,-00000.073605,-00000.560181,-00000.094799,-00000.051122,-00000.077796
0000000001602,00002.701840,00002.134725,00002.195535,00003.210425,00002.846895,00002.788691,00002.691561,00003.147484,00002.699437,00002.811665,-00000.351827,-00000.073925,-00000.560211,-00000.094595,-00000.050558,-00000.078618
0000000001603,00002.702366,00002.135284,00002.195551,00003.210775,00002.847107,00002.789268,00002.691335,00003.147901,00002.699765,00002.811930,-00000.352174,-00000.073906,-00000.560325,-00000.094851,-00000.050413,-00000.079288
0000000001604,00002.702414,00002.136186,00002.195572,00003.211196,00002.847666,00002.789411,00002.691849,00003.148181,00002.700731,00002.812596,-00000.352115,-00000.073816,-00000.560350,-00000.095041,-00000.051021,-00000.079625
0000000001605,00002.702862,00002.137025,00002.195586,00003.211857,00002.847847,00002.789902,00002.692020,00003.148537,00002.701373,00002.812822,-00000.352048,-00000.073800,-00000.560447,-00000.095259,-00000.051624,-00000.079833
0000000001606,00002.703628,00002.137430,00002.195604,00003.212578,00002.847961,00002.790749,00002.692095,00003.149138,00002.701832,00002.813026,-00000.352360,-00000.073724,-00000.560468,-00000.095057,-00000.051778,-00000.080483
0000000001607,00002.704009,00002.137782,00002.195616,00003.212778,00002.848114,00002.791167,00002.691877,00003.149441,00002.702016,00002.813218,-00000.352666,-00000.073710,-00000.560188,-00000.094880,-00000.051566,-00000.081385
0000000001608,00002.704298,00002.138127,00002.195995,00003.213029,00002.848574,00002.791525,00002.691941,00003.149953,00002.702045,00002.813755,-00000.352569,-00000.073645,-00000.559844,-00000.094708,-00000.051335,-00000.082301
0000000001609,00002.704986,00002.138426,00002.196367,00003.213562,00002.848705,00002.792244,00002.692118,00003.150573,00002.702564,00002.813919,-00000.352467,-00000.073633,-00000.559605,-00000.094557,-00000.051154,-00000.083069
0000000001610,00002.705595,00002.138719,00002.196327,00003.213775,00002.848733,00002.792549,00002.692173,00003.150646,00002.702588,00002.814013,-00000.352385,-00000.073578,-00000.559312,-00000.094411,-00000.051320,-00000.083486
0000000001611,00002.706180,00002.138974,00002.196281,00003.213866,00002.849207,00002.792798,00002.692324,00003.151174,00002.702667,00002.814152,-00000.352297,-00000.073568,-00000.559108,-00000.094283,-00000.051529,-00000.083778
0000000001612,00002.706336,00002.139587,00002.195884,00003.214048,00002.849594,00002.793058,00002.692733,00003.150873,00002.703051,00002.814232,-00000.352227,-00000.073520,-00000.558859,-00000.094158,-00000.051670,-00000.084132
0000000001613,00002.706472,00002.140166,00002.195845,00003.214488,00002.849635,00002.793633,00002.692862,00003.150960,00002.703481,00002.814351,-00000.352153,-00000.073512,-00000.558686,-00000.094049,-00000.051485,-00000.084743
0000000001614,00002.706604,00002.140688,00002.195869,00003.214643,00002.849965,00002.793854,00002.693210,00003.151067,00002.703807,00002.814056,-00000.352093,-00000.073472,-00000.558473,-00000.093943,-00000.051243,-00000.085408
0000000001615,00002.707082,00002.140819,00002.195836,00003.214292,00002.850362,00002.793980,00002.693319,00003.151504,00002.703810,00002.814157,-00000.352030,-00000.073464,-00000.558689,-00000.093850,-00000.051448,-00000.086291
0000000001616,00002.707558,00002.140900,00002.195857,00003.214424,00002.850643,00002.794531,00002.693253,00003.151957,00002.703726,00002.814269,-00000.351979,-00000.073430,-00000.558508,-00000.094123,-00000.051604,-00000.086857
0000000001617,00002.707965,00002.141011,00002.195829,00003.214488,00002.850981,00002.795002,00002.693346,00003.152329,00002.706268,00002.813992,-00000.352288,-00000.073424,-00000.558691,-00000.094406,-00000.052142,-00000.087246
0000000001618,00002.708007,00002.141443,00002.195847,00003.215326,00002.851220,00002.795833,00002.693652,00003.152715,00002.709461,00002.814087,-00000.352608,-00000.073395,-00000.558900,-00000.094276,-00000.052275,-00000.088090
0000000001619,00002.707991,00002.141901,00002.195823,00003.215743,00002.851145,00002.796234,00002.694095,00003.152669,00002.711988,00002.813852,-00000.352871,-00000.073752,-00000.559056,-00000.094517,-00000.052370,-00000.088784
0000000001620,00002.708027,00002.141906,00002.195838,00003.215368,00002.851348,00002.796217,00002.693992,00003.152998,00002.713981,00002.813933,-00000.353143,-00000.073728,-00000.559234,-00000.094769,-00000.052483,-00000.089503
0000000001621,00002.708013,00002.142295,00002.195455,00003.215361,00002.851648,00002.796195,00002.694369,00003.152959,00002.716132,00002.814095,-00000.353366,-00000.074032,-00000.559367,-00000.094974,-00000.052564,-00000.089731
0000000001622,00002.708043,00002.142662,00002.195468,00003.215404,00002.851821,00002.796180,00002.694645,00003.152876,00002.717465,00002.814527,-00000.353598,-00000.074011,-00000.559518,-00000.095188,-00000.052298,-00000.089980
0000000001623,00002.707669,00002.142994,00002.195142,00003.215398,00002.851713,00002.796161,00002.694603,00003.152842,00002.718571,00002.814302,-00000.353789,-00000.074270,-00000.559994,-00000.095363,-00000.052366,-00000.090174
0000000001624,00002.707695,00002.142943,00002.194790,00003.215435,00002.851497,00002.796149,00002.694475,00003.152772,00002.719706,00002.813944,-00000.354349,-00000.074615,-00000.560123,-00000.095545,-00000.052140,-00000.090386
0000000001625,00002.707738,00002.142863,00002.194875,00003.215066,00002.851768,00002.795770,00002.694439,00003.152743,00002.720648,00002.814116,-00000.354874,-00000.074835,-00000.560166,-00000.095694,-00000.051472,-00000.090551
0000000001626,00002.708123,00002.142820,00002.194938,00003.214735,00002.851584,00002.795759,00002.694330,00003.153046,00002.721614,00002.814174,-00000.355350,-00000.075129,-00000.560275,-00000.095850,-00000.050917,-00000.090732
0000000001627,00002.708161,00002.142751,00002.194648,00003.214784,00002.851452,00002.795437,00002.694299,00003.152659,00002.722778,00002.813957,-00000.355797,-00000.075680,-00000.560311,-00000.095614,-00000.050349,-00000.090872
0000000001628,00002.708126,00002.143078,00002.194339,00003.215228,00002.851296,00002.795428,00002.694206,00003.152554,00002.724327,00002.814007,-00000.356203,-00000.075930,-00000.560405,-00000.095383,-00000.049876,-00000.091026
0000000001629,00002.708157,00002.143382,00002.194092,00003.215270,00002.851546,00002.795516,00002.694180,00003.152224,00002.725681,00002.813822,-00000.356584,-00000.076398,-00000.560798,-00000.095182,-00000.049029,-00000.091146
0000000001630,00002.708128,00002.143660,00002.193829,00003.215647,00002.851413,00002.795871,00002.694101,00003.152135,00002.726999,00002.813864,-00000.356929,-00000.076974,-00000.560878,-00000.094986,-00000.048264,-00000.091277
0000000001631,00002.708155,00002.143919,00002.193619,00003.215683,00002.851626,00002.795947,00002.694442,00003.152217,00002.728151,00002.814070,-00000.357616,-00000.077373,-00000.560850,-00000.094815,-00000.048269,-00000.091016
0000000001632,00002.708129,00002.143793,00002.193758,00003.215279,00002.851876,00002.795886,00002.694375,00003.152503,00002.728910,00002.814106,-00000.358273,-00000.077863,-00000.561280,-00000.094647,-00000.048343,-00000.090764
0000000001633,00002.708515,00002.143650,00002.193941,00003.214584,00002.852057,00002.795950,00002.694302,00003.152574,00002.729529,00002.814281,-00000.358857,-00000.078202,-00000.561257,-00000.094502,-00000.048347,-00000.090542
0000000001634,00002.708493,00002.143906,00002.194059,00003.214240,00002.852270,00002.795898,00002.694245,00003.152455,00002.730538,00002.814674,-00000.359779,-00000.078620,-00000.561623,-00000.094359,-00000.048047,-00000.090328
0000000001635,00002.708459,00002.144147,00002.193853,00003.214373,00002.852061,00002.795953,00002.694183,00003.152152,00002.731790,00002.814823,-00000.360277,-00000.078909,-00000.561966,-00000.094235,-00000.047688,-00000.090139
0000000001636,00002.708441,00002.144002,00002.193591,00003.214081,00002.852242,00002.795546,00002.694134,00003.152050,00002.733012,00002.814795,-00000.360699,-00000.079264,-00000.562278,-00000.094114,-00000.047070,-00000.089957
0000000001637,00002.708411,00002.143845,00002.193415,00003.213832,00002.852065,00002.795956,00002.694081,00003.152518,00002.734440,00002.814922,-00000.361123,-00000.079510,-00000.562207,-00000.094009,-00000.046402,-00000.090159
0000000001638,00002.708758,00002.143721,00002.193555,00003.213945,00002.852219,00002.795972,00002.694040,00003.152795,00002.735843,00002.815261,-00000.361482,-00000.079812,-00000.562109,-00000.093906,-00000.045876,-00000.090004
0000000001639,00002.709096,00002.143950,00002.193768,00003.214096,00002.852068,00002.796683,00002.693995,00003.153193,00002.737422,00002.815369,-00000.361843,-00000.080022,-00000.562412,-00000.093816,-00000.045669,-00000.089813
0000000001640,00002.709392,00002.144208,00002.193887,00003.214193,00002.851836,00002.797060,00002.693959,00003.153428,00002.738617,00002.815295,-00000.362149,-00000.080279,-00000.562692,-00000.093728,-00000.045584,-00000.089681
0000000001641,00002.709680,00002.144040,00002.194068,00003.213958,00002.851707,00002.796940,00002.693921,00003.153404,00002.739598,00002.815387,-00000.362456,-00000.080457,-00000.562586,-00000.094014,-00000.045046,-00000.089518
0000000001642,00002.709568,00002.144259,00002.193807,00003.214041,00002.851510,00002.797261,00002.693891,00003.153605,00002.740615,00002.814961,-00000.363079,-00000.080677,-00000.562825,-00000.093940,-00000.044610,-00000.089406
0000000001643,00002.709450,00002.144842,00002.193598,00003.214567,00002.851764,00002.797159,00002.694221,00003.153584,00002.741813,00002.815039,-00000.363340,-00000.080828,-00000.563098,-00000.093821,-00000.044152,-00000.089630
0000000001644,00002.709356,00002.145028,00002.193376,00003.214637,00002.851596,00002.797432,00002.694196,00003.153392,00002.743042,00002.815039,-00000.363508,-00000.081015,-00000.563301,-00000.093757,-00000.043782,-00000.089897
0000000001645,00002.709618,00002.144799,00002.193561,00003.214722,00002.851448,00002.797707,00002.694114,00003.153738,00002.743699,00002.815106,-00000.363730,-00000.081144,-00000.563170,-00000.093656,-00000.043391,-00000.090088
0000000001646,00002.709900,00002.145320,00002.193734,00003.214781,00002.852031,00002.797577,00002.694455,00003.153937,00002.744745,00002.815106,-00000.363873,-00000.081303,-00000.563343,-00000.093601,-00000.043076,-00000.090316
0000000001647,00002.709761,00002.145851,00002.193530,00003.214491,00002.852269,00002.797449,00002.694385,00003.153505,00002.745667,00002.815163,-00000.364063,-00000.081413,-00000.563232,-00000.093515,-00000.042744,-00000.090478
0000000001648,00002.710364,00002.145932,00002.193677,00003.214542,00002.852039,00002.797701,00002.694313,00003.153675,00002.746557,00002.815163,-00000.364184,-00000.081548,-00000.563016,-00000.093469,-00000.042475,-00000.090672
0000000001649,00002.710971,00002.146020,00002.193503,00003.214657,00002.851878,00002.797955,00002.694254,00003.154033,00002.746979,00002.815211,-00000.364346,-00000.081642,-00000.562922,-00000.093033,-00000.041830,-00000.090810
0000000001650,00002.711484,00002.146090,00002.193628,00003.214338,00002.852046,00002.798169,00002.694192,00003.154178,00002.747375,00002.815574,-00000.364449,-00000.081757,-00000.562738,-00000.092993,-00000.041238,-00000.090975
0000000001651,00002.712001,00002.146165,00002.193842,00003.214436,00002.852272,00002.798385,00002.694142,00003.154483,00002.747734,00002.815978,-00000.364586,-00000.081474,-00000.562658,-00000.092985,-00000.040689,-00000.091093
0000000001652,00002.712075,00002.146224,00002.193949,00003.214164,00002.852414,00002.798205,00002.694089,00003.154243,00002.748070,00002.815924,-00000.364674,-00000.081572,-00000.562501,-00000.092951,-00000.040548,-00000.091233
0000000001653,00002.712152,00002.146651,00002.193769,00003.214248,00002.852244,00002.798026,00002.694409,00003.154140,00002.748739,00002.815905,-00000.364791,-00000.081694,-00000.562433,-00000.092944,-00000.040080,-00000.091334
0000000001654,00002.711852,00002.146701,00002.193497,00003.214379,00002.852003,00002.797873,00002.694364,00003.153573,00002.749388,00002.815859,-00000.364866,-00000.081414,-00000.562300,-00000.092553,-00000.039960,-00000.091816
0000000001655,00002.711918,00002.147064,00002.193706,00003.214450,00002.852220,00002.798083,00002.694637,00003.153485,00002.750321,00002.815843,-00000.364966,-00000.081155,-00000.562241,-00000.092184,-00000.039562,-00000.092264
0000000001656,00002.712026,00002.147107,00002.193475,00003.214562,00002.852015,00002.798678,00002.694236,00003.153365,00002.750510,00002.815804,-00000.365030,-00000.080917,-00000.562128,-00000.091851,-00000.039097,-00000.092674
0000000001657,00002.712082,00002.147417,00002.193290,00003.214623,00002.851837,00002.798857,00002.694105,00003.152927,00002.750941,00002.815790,-00000.365114,-00000.080697,-00000.561716,-00000.091537,-00000.038758,-00000.093056
0000000001658,00002.712536,00002.147453,00002.193456,00003.214718,00002.852025,00002.799364,00002.694126,00003.153188,00002.751466,00002.816120,-00000.365169,-00000.080494,-00000.561619,-00000.091253,-00000.038363,-00000.093405
0000000001659,00002.712946,00002.147716,00002.193662,00003.215132,00002.851874,00002.800242,00002.694015,00003.153541,00002.751832,00002.816471,-00000.365241,-00000.080307,-00000.561631,-00000.090986,-00000.038074,-00000.093730
0000000001660,00002.713333,00002.147747,00002.193803,00003.214850,00002.852034,00002.800673,00002.694033,00003.153763,00002.751916,00002.816389,-00000.365287,-00000.080134,-00000.561549,-00000.090744,-00000.037737,-00000.094028
0000000001661,00002.713320,00002.147972,00002.193615,00003.214840,00002.852268,00002.800695,00002.694301,00003.153701,00002.752228,00002.816325,-00000.365711,-00000.080337,-00000.561196,-00000.090517,-00000.037492,-00000.094304
0000000001662,00002.713286,00002.148361,00002.193735,00003.215326,00002.852042,00002.801425,00002.694317,00003.153890,00002.752662,00002.816255,-00000.365751,-00000.080553,-00000.560763,-00000.090311,-00000.037205,-00000.094920
0000000001663,00002.713638,00002.148189,00002.193575,00003.215680,00002.851878,00002.801806,00002.694182,00003.153837,00002.752928,00002.816200,-00000.365749,-00000.080363,-00000.560463,-00000.090117,-00000.037358,-00000.095519
0000000001664,00002.713972,00002.148157,00002.193678,00003.215368,00002.852048,00002.802065,00002.694195,00003.153635,00002.753297,00002.816504,-00000.365782,-00000.080184,-00000.560095,-00000.089943,-00000.037477,-00000.096043
0000000001665,00002.714271,00002.148011,00002.193904,00003.215670,00002.852272,00002.802753,00002.694081,00003.153953,00002.753524,00002.816820,-00000.365781,-00000.080023,-00000.559839,-00000.089778,-00000.037608,-00000.096552
0000000001666,00002.714193,00002.148347,00002.193629,00003.215767,00002.852416,00002.802973,00002.694455,00003.153781,00002.754201,00002.817078,-00000.365809,-00000.079870,-00000.559525,-00000.089629,-00000.037709,-00000.096999
0000000001667,00002.714085,00002.148585,00002.193822,00003.216024,00002.852607,00002.803195,00002.694720,00003.153688,00002.754756,00002.817348,-00000.365808,-00000.079733,-00000.559308,-00000.089488,-00000.037820,-00000.097432
0000000001668,00002.714381,00002.148871,00002.193950,00003.216106,00002.852730,00002.803382,00002.695038,00003.153542,00002.754970,00002.817567,-00000.365833,-00000.079603,-00000.559404,-00000.089361,-00000.037906,-00000.097812
0000000001669,00002.714652,00002.149074,00002.194114,00003.215962,00002.852892,00002.803935,00002.694901,00003.153826,00002.755080,00002.817797,-00000.365832,-00000.079486,-00000.559218,-00000.089242,-00000.038001,-00000.098181
0000000001670,00002.714904,00002.149317,00002.194223,00003.216395,00002.852634,00002.804820,00002.694810,00003.154064,00002.755262,00002.817984,-00000.365852,-00000.079375,-00000.559300,-00000.089134,-00000.038074,-00000.098505
0000000001671,00002.715134,00002.149127,00002.194363,00003.216272,00002.852409,00002.805290,00002.694693,00003.154306,00002.754993,00002.818179,-00000.365851,-00000.079276,-00000.559505,-00000.089032,-00000.038155,-00000.098819
0000000001672,00002.715349,00002.148972,00002.194456,00003.216278,00002.852552,00002.805681,00002.694615,00003.154509,00002.755148,00002.817975,-00000.365869,-00000.079182,-00000.559574,-00000.088940,-00000.038217,-00000.099095
0000000001673,00002.715545,00002.149173,00002.194575,00003.216174,00002.852724,00002.805718,00002.694878,00003.154352,00002.755281,00002.817779,-00000.365868,-00000.079097,-00000.559749,-00000.088854,-00000.038286,-00000.098999
0000000001674,00002.715365,00002.149766,00002.194291,00003.216542,00002.852845,00002.805688,00002.695175,00003.154162,00002.755776,00002.817606,-00000.365520,-00000.079017,-00000.559445,-00000.088775,-00000.038339,-00000.098871
0000000001675,00002.715532,00002.149937,00002.194030,00003.216453,00002.852991,00002.806082,00002.695399,00003.154391,00002.756253,00002.817801,-00000.365157,-00000.078944,-00000.559231,-00000.088702,-00000.038398,-00000.098790
0000000001676,00002.716105,00002.149716,00002.194514,00003.216766,00002.853458,00002.806782,00002.695651,00003.154955,00002.756311,00002.818016,-00000.364861,-00000.078876,-00000.558973,-00000.088635,-00000.038443,-00000.098681
0000000001677,00002.716247,00002.149499,00002.194654,00003.216690,00002.853945,00002.806755,00002.695842,00003.155150,00002.756354,00002.817820,-00000.364914,-00000.078815,-00000.559153,-00000.088572,-00000.038493,-00000.098974
0000000001678,00002.716008,00002.149674,00002.194340,00003.216957,00002.853979,00002.806626,00002.696057,00003.154905,00002.756766,00002.817640,-00000.365025,-00000.078757,-00000.559296,-00000.088516,-00000.038168,-00000.099244
0000000001679,00002.716129,00002.149852,00002.194097,00003.217255,00002.854031,00002.807328,00002.696219,00003.155071,00002.757166,00002.817473,-00000.365070,-00000.078704,-00000.559449,-00000.088462,-00000.038211,-00000.099494
0000000001680,00002.716289,00002.150364,00002.194193,00003.217119,00002.854423,00002.807581,00002.696765,00003.155587,00002.757154,00002.817683,-00000.365165,-00000.078655,-00000.559571,-00000.088777,-00000.038297,-00000.099724
0000000001681,00002.716030,00002.150878,00002.193986,00003.217373,00002.854467,00002.807816,00002.696903,00003.155366,00002.757131,00002.817541,-00000.365203,-00000.078610,-00000.559702,-00000.088731,-00000.038333,-00000.099937
0000000001682,00002.716166,00002.150588,00002.194067,00003.216895,00002.854438,00002.808031,00002.696642,00003.155443,00002.757121,00002.817720,-00000.365284,-00000.078568,-00000.559805,-00000.088636,-00000.038407,-00000.100132
0000000001683,00002.716307,00002.151026,00002.193891,00003.216748,00002.854838,00002.808231,00002.697123,00003.155617,00002.757102,00002.817598,-00000.365317,-00000.078530,-00000.559916,-00000.088597,-00000.038438,-00000.100313
0000000001684,00002.716423,00002.151142,00002.193960,00003.216704,00002.855177,00002.808414,00002.697263,00003.155320,00002.757093,00002.817388,-00000.365385,-00000.078495,-00000.560004,-00000.088516,-00000.038501,-00000.100480
0000000001685,00002.716907,00002.151152,00002.194173,00003.216942,00002.855155,00002.809311,00002.697310,00003.155831,00002.757077,00002.817647,-00000.365413,-00000.078462,-00000.560099,-00000.088483,-00000.038890,-00000.100634
0000000001686,00002.716642,00002.151250,00002.193869,00003.216541,00002.855080,00002.809103,00002.697429,00003.155578,00002.757070,00002.817468,-00000.365471,-00000.078432,-00000.560174,-00000.088777,-00000.038943,-00000.100776
0000000001687,00002.716691,00002.151259,00002.193688,00003.216381,00002.855061,00002.808778,00002.697469,00003.155287,00002.757056,00002.817326,-00000.365495,-00000.078404,-00000.560255,-00000.088749,-00000.038911,-00000.100907
0000000001688,00002.716466,00002.151343,00002.193792,00003.216402,00002.855360,00002.808964,00002.697571,00003.155435,00002.757412,00002.817536,-00000.365545,-00000.078378,-00000.560319,-00000.088637,-00000.038957,-00000.101028
0000000001689,00002.716508,00002.150987,00002.193637,00003.216629,00002.855344,00002.809050,00002.697604,00003.155187,00002.757400,00002.817416,-00000.365565,-00000.078355,-00000.560387,-00000.088613,-00000.038930,-00000.101139
0000000001690,00002.716679,00002.150333,00002.193726,00003.216647,00002.854873,00002.809209,00002.697328,00003.155313,00002.756978,00002.817232,-00000.365607,-00000.078333,-00000.560442,-00000.088880,-00000.038969,-00000.101242
0000000001691,00002.716352,00002.150393,00002.193594,00003.216477,00002.854859,00002.808919,00002.697357,00003.155102,00002.756968,00002.817129,-00000.365624,-00000.078313,-00000.560500,-00000.089222,-00000.039309,-00000.101337
0000000001692,00002.716498,00002.150199,00002.193307,00003.216493,00002.854458,00002.809054,00002.697122,00003.155209,00002.756609,00002.816973,-00000.365660,-00000.078294,-00000.560546,-00000.089449,-00000.039342,-00000.101425
0000000001693,00002.715856,00002.150250,00002.193195,00003.215985,00002.854447,00002.808808,00002.697146,00003.155030,00002.756237,00002.816885,-00000.365675,-00000.078277,-00000.560596,-00000.089741,-00000.039268,-00000.101506
0000000001694,00002.715617,00002.150448,00002.192950,00003.215999,00002.854468,00002.808560,00002.697309,00003.154758,00002.756294,00002.816752,-00000.365705,-00000.078261,-00000.560635,-00000.089934,-00000.039659,-00000.101580
0000000001695,00002.715434,00002.150129,00002.193218,00003.215567,00002.854821,00002.807987,00002.697329,00003.154968,00002.755978,00002.817040,-00000.365718,-00000.078247,-00000.560678,-00000.090183,-00000.039959,-00000.101286
0000000001696,00002.715231,00002.149934,00002.193372,00003.215215,00002.854839,00002.807413,00002.697105,00003.154737,00002.755301,00002.817289,-00000.365744,-00000.078233,-00000.560711,-00000.089985,-00000.039929,-00000.100987
0000000001697,00002.715437,00002.149662,00002.193600,00003.214847,00002.855140,00002.807288,00002.697123,00003.154916,00002.755032,00002.817898,-00000.365392,-00000.078221,-00000.560747,-00000.090196,-00000.040185,-00000.100737
0000000001698,00002.715265,00002.149860,00002.193731,00003.214186,00002.855155,00002.806800,00002.696932,00003.154719,00002.754818,00002.817747,-00000.365414,-00000.078209,-00000.560776,-00000.090390,-00000.040159,-00000.100482
0000000001699,00002.715441,00002.149628,00002.193925,00003.213872,00002.855411,00002.806694,00002.696584,00003.154871,00002.754589,00002.817539,-00000.365477,-00000.078199,-00000.560807,-00000.090570,-00000.040014,-00000.100269
0000000001700,00002.715656,00002.149433,00002.194037,00003.213672,00002.855787,00002.806278,00002.696784,00003.155066,00002.754407,00002.817774,-00000.365496,-00000.078189,-00000.560831,-00000.090735,-00000.039992,-00000.100052
0000000001701,00002.715806,00002.149236,00002.194202,00003.213768,00002.855279,00002.806188,00002.696488,00003.154833,00002.754212,00002.817597,-00000.365550,-00000.078180,-00000.560857,-00000.090888,-00000.040231,-00000.099871
0000000001702,00002.715627,00002.149070,00002.194298,00003.213234,00002.855236,00002.805471,00002.696659,00003.154636,00002.754057,00002.817434,-00000.365566,-00000.078172,-00000.560515,-00000.091029,-00000.040576,-00000.099686
0000000001703,00002.715391,00002.149265,00002.194075,00003.213316,00002.855167,00002.805394,00002.696769,00003.154438,00002.754254,00002.817284,-00000.365611,-00000.078164,-00000.560537,-00000.091159,-00000.040779,-00000.099532
0000000001704,00002.715602,00002.149124,00002.194156,00003.213225,00002.855131,00002.805146,00002.696915,00003.154633,00002.754122,00002.817508,-00000.366351,-00000.078157,-00000.560609,-00000.091279,-00000.041072,-00000.099374
0000000001705,00002.715038,00002.148565,00002.194330,00003.212932,00002.855071,00002.805081,00002.697009,00003.154827,00002.753927,00002.817742,-00000.368203,-00000.078513,-00000.560265,-00000.091390,-00000.041246,-00000.099243
0000000001706,00002.714129,00002.148444,00002.194036,00003.212854,00002.855040,00002.804507,00002.697132,00003.154631,00002.753815,00002.817207,-00000.372098,-00000.078507,-00000.559600,-00000.091129,-00000.041495,-00000.099472
0000000001707,00002.713287,00002.147968,00002.193821,00003.212604,00002.853902,00002.804089,00002.696850,00003.154070,00002.752560,00002.816681,-00000.376578,-00000.078448,-00000.558945,-00000.090861,-00000.041643,-00000.100448
0000000001708,00002.712150,00002.147503,00002.193208,00003.212538,00002.852787,00002.803238,00002.696592,00003.153177,00002.751013,00002.816226,-00000.381707,-00000.078805,-00000.557653,-00000.090276,-00000.042218,-00000.102095
0000000001709,00002.710344,00002.147098,00002.193025,00003.212326,00002.852180,00002.802156,00002.696715,00003.152700,00002.748131,00002.816141,-00000.388060,-00000.078392,-00000.556007,-00000.089685,-00000.043432,-00000.103651
0000000001710,00002.707925,00002.145613,00002.192504,00003.212269,00002.850869,00002.801794,00002.696495,00003.151940,00002.743912,00002.815754,-00000.396054,-00000.077971,-00000.554182,-00000.088824,-00000.044284,-00000.103964
0000000001711,00002.704575,00002.143091,00002.191985,00003.211725,00002.849264,00002.797971,00002.695874,00003.150445,00002.740008,00002.815318,-00000.406542,-00000.077256,-00000.551692,-00000.087595,-00000.044592,-00000.103476
0000000001712,00002.699976,00002.140376,00002.191541,00003.210589,00002.847784,00002.792947,00002.695687,00003.148347,00002.735690,00002.814626,-00000.418790,-00000.076535,-00000.549050,-00000.086137,-00000.044592,-00000.102291
0000000001713,00002.694946,00002.136778,00002.191099,00003.209401,00002.845692,00002.786064,00002.695158,00003.145986,00002.731278,00002.813893,-00000.433159,-00000.075926,-00000.546205,-00000.085091,-00000.044492,-00000.100424
0000000001714,00002.689217,00002.133379,00002.190358,00003.208070,00002.843345,00002.778885,00002.694636,00003.142749,00002.725426,00002.813303,-00000.449028,-00000.074949,-00000.542867,-00000.083849,-00000.044492,-00000.097964
0000000001715,00002.683485,00002.129590,00002.189982,00003.206696,00002.841564,00002.772300,00002.694549,00003.140014,00002.718767,00002.813404,-00000.465977,-00000.073706,-00000.538994,-00000.082596,-00000.044406,-00000.095286
0000000001716,00002.677519,00002.124882,00002.189715,00003.205201,00002.838840,00002.765100,00002.694104,00003.136532,00002.711972,00002.813265,-00000.484928,-00000.072149,-00000.534701,-00000.081176,-00000.044769,-00000.092104
0000000001717,00002.671188,00002.119117,00002.189032,00003.203668,00002.835147,00002.758043,00002.692579,00003.132752,00002.705215,00002.812989,-00000.505887,-00000.070364,-00000.529953,-00000.078658,-00000.044696,-00000.088373
0000000001718,00002.664295,00002.113658,00002.188441,00003.202395,00002.832102,00002.751188,00002.691475,00003.128700,00002.699067,00002.812507,-00000.527099,-00000.067950,-00000.524485,-00000.074910,-00000.043916,-00000.084575
0000000001719,00002.656729,00002.108025,00002.187860,00003.200365,00002.828596,00002.744092,00002.690176,00003.124394,00002.692589,00002.812272,-00000.549658,-00000.065706,-00000.518628,-00000.070952,-00000.042766,-00000.080674
0000000001720,00002.649047,00002.102652,00002.186994,00003.198918,00002.824552,00002.737530,00002.688511,00003.119856,00002.686629,00002.811862,-00000.573157,-00000.063288,-00000.512885,-00000.067036,-00000.041377,-00000.076715
0000000001721,00002.641517,00002.097131,00002.186862,00003.197190,00002.821205,00002.730764,00002.687405,00003.115827,00002.680389,00002.812025,-00000.597804,-00000.061015,-00000.507174,-00000.063304,-00000.040035,-00000.072668
0000000001722,00002.631350,00002.091106,00002.186488,00003.195595,00002.817037,00002.723364,00002.686350,00003.111601,00002.674228,00002.811676,-00000.624339,-00000.059319,-00000.501196,-00000.059970,-00000.038852,-00000.068210
0000000001723,00002.621675,00002.084955,00002.186012,00003.193761,00002.812373,00002.716516,00002.684684,00003.108172,00002.668190,00002.811088,-00000.653665,-00000.058109,-00000.494883,-00000.056068,-00000.037709,-00000.063314
0000000001724,00002.611931,00002.078374,00002.185331,00003.191316,00002.807374,00002.709491,00002.682697,00003.104574,00002.662219,00002.810791,-00000.686412,-00000.057391,-00000.487980,-00000.051778,-00000.036340,-00000.058793
0000000001725,00002.601881,00002.070961,00002.184564,00003.187940,00002.801590,00002.702210,00002.680190,00003.100566,00002.655991,00002.809929,-00000.723349,-00000.057450,-00000.480429,-00000.047368,-00000.035004,-00000.054987
0000000001726,00002.591772,00002.063545,00002.183621,00003.184044,00002.794432,00002.694052,00002.678136,00003.096778,00002.649819,00002.808950,-00000.762111,-00000.057927,-00000.473102,-00000.043353,-00000.034201,-00000.051502
0000000001727,00002.581402,00002.055783,00002.182968,00003.179720,00002.785517,00002.685677,00002.675639,00003.093366,00002.643791,00002.808216,-00000.802626,-00000.058702,-00000.465585,-00000.039236,-00000.033790,-00000.048262
0000000001728,00002.570257,00002.047293,00002.182528,00003.175315,00002.776158,00002.677282,00002.673165,00003.089778,00002.637812,00002.807746,-00000.845419,-00000.059834,-00000.457896,-00000.035093,-00000.033469,-00000.044932
0000000001729,00002.558526,00002.039234,00002.181972,00003.170908,00002.766755,00002.668338,00002.671039,00003.084334,00002.632318,00002.806758,-00000.890793,-00000.061220,-00000.450046,-00000.030862,-00000.032756,-00000.042174
0000000001730,00002.546862,00002.030918,00002.181597,00003.166069,00002.757699,00002.659377,00002.668570,00003.078740,00002.627228,00002.805632,-00000.938469,-00000.062909,-00000.442049,-00000.026609,-00000.032120,-00000.039702
0000000001731,00002.535425,00002.022244,00002.181124,00003.160503,00002.748969,00002.649949,00002.665309,00003.073017,00002.622188,00002.804791,-00000.987617,-00000.064814,-00000.433915,-00000.022645,-00000.032239,-00000.036991
0000000001732,00002.524043,00002.013350,00002.180805,00003.154208,00002.740534,00002.640870,00002.662119,00003.067530,00002.617854,00002.803832,-00001.038000,-00000.066978,-00000.425656,-00000.018299,-00000.033149,-00000.034523
0000000001733,00002.509591,00002.004877,00002.180039,00003.148381,00002.732376,00002.631392,00002.658980,00003.061569,00002.613564,00002.802391,-00001.091448,-00000.068600,-00000.417281,-00000.013836,-00000.033975,-00000.032216
0000000001734,00002.495185,00001.995855,00002.179768,00003.143022,00002.723745,00002.621486,00002.655539,00003.056172,00002.609149,00002.800486,-00001.147037,-00000.069716,-00000.409161,-00000.009410,-00000.034750,-00000.030115
0000000001735,00002.480342,00001.984289,00002.179479,00003.137699,00002.715349,00002.610879,00002.652504,00003.049647,00002.604771,00002.798171,-00001.204147,-00000.070008,-00000.401306,-00000.004885,-00000.035816,-00000.028151
0000000001736,00002.465902,00001.972618,00002.179248,00003.132774,00002.707275,00002.600632,00002.648849,00003.044690,00002.600287,00002.795824,-00001.263079,-00000.069870,-00000.393305,-00000.000030,-00000.037201,-00000.026000
0000000001737,00002.451090,00001.962771,00002.179364,00003.128242,00002.699039,00002.589788,00002.645539,00003.039860,00002.595472,00002.793853,-00001.322581,-00000.069031,-00000.385529,00000.005274,-00000.039197,-00000.023965
0000000001738,00002.435532,00001.952110,00002.179168,00003.124049,00002.690715,00002.577436,00002.642065,00003.036366,00002.591292,00002.791492,-00001.383996,-00000.067825,-00000.377993,00000.010133,-00000.041465,-00000.022497
0000000001739,00002.418568,00001.944090,00002.178541,00003.119466,00002.682616,00002.564577,00002.638885,00003.030803,00002.587555,00002.788726,-00001.446985,-00000.066747,-00000.370648,00000.015011,-00000.043890,-00000.021127
0000000001740,00002.401333,00001.935740,00002.178011,00003.115534,00002.674441,00002.551523,00002.635927,00003.026740,00002.583634,00002.785991,-00001.511240,-00000.065721,-00000.363870,00000.019510,-00000.046183,-00000.019514
0000000001741,00002.382538,00001.927461,00002.177478,00003.111995,00002.666820,00002.537310,00002.632494,00003.021642,00002.579002,00002.782910,-00001.579737,-00000.065529,-00000.356891,00000.024025,-00000.049335,-00000.018348
0000000001742,00002.362424,00001.919264,00002.177389,00003.107922,00002.659498,00002.522932,00002.628163,00003.016006,00002.572762,00002.779856,-00001.650400,-00000.066469,-00000.349669,00000.029307,-00000.053101,-00000.017701
0000000001743,00002.315515,00001.899434,00002.176497,00003.099265,00002.643512,00002.492788,00002.620464,00003.003240,00002.560241,00002.772457,-00001.814216,-00000.073999,-00000.331776,00000.042726,-00000.062256,-00000.017608
0000000001744,00002.293340,00001.889042,00002.176474,00003.094794,00002.636445,00002.478620,00002.616324,00002.997276,00002.553217,00002.768935,-00001.898041,-00000.080685,-00000.322434,00000.049974,-00000.066448,-00000.017381
0000000001745,00002.271953,00001.879650,00002.176464,00003.090445,00002.629903,00002.465675,00002.612459,00002.991647,00002.546680,00002.765795,-00001.979068,-00000.087665,-00000.313278,00000.056689,-00000.070413,-00000.016804
0000000001746,00002.252350,00001.869352,00002.176443,00003.087001,00002.623524,00002.453252,00002.608572,00002.985119,00002.540700,00002.762434,-00002.060586,-00000.095533,-00000.303511,00000.064310,-00000.073982,-00000.015522
0000000001747,00002.231604,00001.859543,00002.176435,00003.083661,00002.617593,00002.441506,00002.604919,00002.977787,00002.535135,00002.759398,-00002.140811,-00000.104379,-00000.293903,00000.071478,-00000.076268,-00000.013942
0000000001748,00002.211651,00001.850414,00002.176418,00003.080729,00002.612162,00002.430930,00002.601610,00002.971867,00002.530045,00002.756174,-00002.218552,-00000.113616,-00000.284500,00000.078692,-00000.077129,-00000.012851
0000000001749,00002.193627,00001.841701,00002.176773,00003.077161,00002.607112,00002.420931,00002.598500,00002.965988,00002.524944,00002.753590,-00002.295192,-00000.123323,-00000.274870,00000.086607,-00000.077988,-00000.012232
0000000001750,00002.177003,00001.833203,00002.176396,00003.073576,00002.602127,00002.410839,00002.595321,00002.960585,00002.520248,00002.750120,-00002.368266,-00000.133364,-00000.265414,00000.094925,-00000.078358,-00000.011666
0000000001751,00002.160208,00001.825060,00002.176335,00003.069087,00002.597828,00002.400875,00002.592310,00002.955581,00002.515906,00002.746831,-00002.438588,-00000.143804,-00000.255764,00000.103478,-00000.078726,-00000.011139
0000000001752,00002.143154,00001.817463,00002.176377,00003.064222,00002.593946,00002.391558,00002.589603,00002.952070,00002.511545,00002.744240,-00002.504787,-00000.154165,-00000.246626,00000.111647,-00000.078316,-00000.010657
0000000001753,00002.126680,00001.810168,00002.176688,00003.059675,00002.590287,00002.382351,00002.586678,00002.948898,00002.507123,00002.741803,-00002.568643,-00000.164867,-00000.238049,00000.120017,-00000.076089,-00000.010571
0000000001754,00002.111074,00001.803338,00002.176724,00003.055533,00002.586257,00002.373694,00002.584011,00002.945546,00002.503411,00002.739234,-00002.629714,-00000.175502,-00000.230269,00000.128059,-00000.073563,-00000.010523
0000000001755,00002.093421,00001.796402,00002.176626,00003.051300,00002.582416,00002.365493,00002.581158,00002.942121,00002.499646,00002.736434,-00002.688791,-00000.186426,-00000.223330,00000.135910,-00000.070942,-00000.010087
0000000001756,00002.077233,00001.789863,00002.176656,00003.047048,00002.579348,00002.357760,00002.578524,00002.938904,00002.496123,00002.734248,-00002.744046,-00000.197656,-00000.217433,00000.143482,-00000.068066,-00000.009321
0000000001757,00002.061843,00001.783958,00002.176573,00003.043444,00002.576078,00002.350416,00002.576095,00002.935625,00002.492919,00002.731864,-00002.796515,-00000.208407,-00000.211888,00000.151254,-00000.064747,-00000.008587
0000000001758,00002.047699,00001.778028,00002.176599,00003.039825,00002.573466,00002.343833,00002.573491,00002.932887,00002.489920,00002.729640,-00002.845005,-00000.219056,-00000.206505,00000.159151,-00000.060847,-00000.007935
0000000001759,00002.034598,00001.772639,00002.176528,00003.036394,00002.571045,00002.337944,00002.571423,00002.930096,00002.487191,00002.727973,-00002.890760,-00000.228933,-00000.201785,00000.167218,-00000.057296,-00000.007310
0000000001760,00002.022557,00001.767953,00002.176550,00003.033312,00002.568822,00002.333065,00002.569569,00002.927402,00002.484638,00002.726080,-00002.932403,-00000.237999,-00000.197928,00000.175030,-00000.053976,-00000.006392
0000000001761,00002.011404,00001.763365,00002.176490,00003.030392,00002.566761,00002.328415,00002.567808,00002.925026,00002.482316,00002.724298,-00002.970991,-00000.246045,-00000.194273,00000.182623,-00000.050590,-00000.005498
0000000001762,00002.001153,00001.759013,00002.176871,00003.027769,00002.564869,00002.324262,00002.565867,00002.923096,00002.480142,00002.722323,-00003.006078,-00000.253399,-00000.190990,00000.189636,-00000.047038,-00000.005079
0000000001763,00001.991296,00001.755471,00002.177183,00003.024919,00002.563477,00002.320302,00002.564368,00002.921073,00002.478165,00002.720807,-00003.038566,-00000.260249,-00000.188603,00000.195737,-00000.043793,-00000.005406
0000000001764,00001.982207,00001.752129,00002.177507,00003.022324,00002.562228,00002.316404,00002.563078,00002.919429,00002.476315,00002.719488,-00003.068073,-00000.266147,-00000.186897,00000.200981,-00000.040769,-00000.006138
0000000001765,00001.973815,00001.749113,00002.177410,00003.020261,00002.561044,00002.313034,00002.561803,00002.917707,00002.474995,00002.718198,-00003.095004,-00000.271978,-00000.185591,00000.205813,-00000.038369,-00000.007141
0000000001766,00001.966078,00001.746268,00002.177686,00003.018414,00002.559981,00002.309715,00002.560704,00002.915945,00002.473782,00002.716712,-00003.119398,-00000.277362,-00000.184501,00000.210277,-00000.036158,-00000.008490
0000000001767,00001.958934,00001.743700,00002.177966,00003.016295,00002.559335,00002.306483,00002.559618,00002.914479,00002.472658,00002.715613,-00003.140873,-00000.282326,-00000.184115,00000.214390,-00000.033752,-00000.009707
0000000001768,00001.951984,00001.741279,00002.178201,00003.013997,00002.558793,00002.303658,00002.558684,00002.912980,00002.471626,00002.714712,-00003.159463,-00000.287272,-00000.184275,00000.218191,-00000.031507,-00000.010856
0000000001769,00001.945902,00001.738730,00002.178439,00003.012193,00002.557881,00002.301269,00002.557396,00002.911732,00002.470306,00002.713776,-00003.175205,-00000.291498,-00000.185035,00000.221329,-00000.029459,-00000.011892
0000000001770,00001.940349,00001.736668,00002.178639,00003.010237,00002.557419,00002.299227,00002.556600,00002.910818,00002.469065,00002.713009,-00003.188128,-00000.295346,-00000.186622,00000.223476,-00000.027910,-00000.012507
0000000001771,00001.935535,00001.734861,00002.178842,00003.008702,00002.556643,00002.297556,00002.555867,00002.910118,00002.468304,00002.712212,-00003.198265,-00000.298943,-00000.188357,00000.225059,-00000.026529,-00000.012300
0000000001772,00001.931170,00001.733106,00002.179013,00003.007399,00002.556250,00002.295818,00002.555190,00002.909340,00002.467248,00002.711922,-00003.207089,-00000.302582,-00000.191160,00000.225436,-00000.024848,-00000.012098
0000000001773,00001.927071,00001.731205,00002.179185,00003.005729,00002.555588,00002.294033,00002.554203,00002.908381,00002.466237,00002.711607,-00003.214630,-00000.306733,-00000.194088,00000.224970,-00000.023673,-00000.011560
0000000001774,00001.923718,00001.729349,00002.178968,00003.004620,00002.554891,00002.292916,00002.553263,00002.907719,00002.465338,00002.710996,-00003.221417,-00000.311281,-00000.197200,00000.224202,-00000.022242,-00000.011025
0000000001775,00001.920592,00001.727730,00002.179115,00003.003198,00002.554328,00002.291759,00002.552423,00002.906903,00002.464477,00002.710365,-00003.227836,-00000.316266,-00000.200418,00000.222354,-00000.021241,-00000.009841
0000000001776,00001.916286,00001.726150,00002.178929,00003.002255,00002.553735,00002.290445,00002.551623,00002.905614,00002.463712,00002.709846,-00003.235065,-00000.321952,-00000.203430,00000.219887,-00000.020386,-00000.008297
0000000001777,00001.913262,00001.724409,00002.179054,00003.000681,00002.553618,00002.289097,00002.550908,00002.904556,00002.462979,00002.709671,-00003.243432,-00000.328010,-00000.206170,00000.216500,-00000.019534,-00000.006563
0000000001778,00001.909960,00001.722701,00002.178897,00002.999152,00002.553113,00002.288342,00002.550227,00002.903821,00002.461965,00002.709229,-00003.252126,-00000.335027,-00000.209096,00000.212948,-00000.018805,-00000.004886
0000000001779,00001.905934,00001.721219,00002.178640,00002.997813,00002.552651,00002.287557,00002.549618,00002.902558,00002.460979,00002.708718,-00003.262151,-00000.343086,-00000.211792,00000.209339,-00000.018080,-00000.003048
0000000001780,00001.902034,00001.719764,00002.178506,00002.996149,00002.552584,00002.286551,00002.549039,00002.901570,00002.460115,00002.708341,-00003.273180,-00000.351600,-00000.213920,00000.205590,-00000.017460,-00000.000895
0000000001781,00001.897519,00001.718140,00002.178288,00002.994646,00002.552191,00002.285883,00002.548158,00002.900495,00002.458912,00002.707906,-00003.285705,-00000.360274,-00000.215489,00000.202155,-00000.016843,00000.001033
0000000001782,00001.892747,00001.716539,00002.178173,00002.992866,00002.552496,00002.285390,00002.546939,00002.899653,00002.458177,00002.707586,-00003.299810,-00000.369699,-00000.216938,00000.198963,-00000.015952,00000.002866
0000000001783,00001.888178,00001.714794,00002.178351,00002.991224,00002.552887,00002.284821,00002.545463,00002.899101,00002.457153,00002.707578,-00003.314463,-00000.379986,-00000.218274,00000.196039,-00000.015064,00000.004508
0000000001784,00001.884116,00001.713431,00002.178253,00002.989709,00002.553147,00002.284764,00002.544062,00002.898385,00002.456527,00002.707305,-00003.326471,-00000.389823,-00000.219508,00000.193684,-00000.014306,00000.006068
0000000001785,00001.880589,00001.711945,00002.178041,00002.987948,00002.553842,00002.285368,00002.543532,00002.897914,00002.455656,00002.707298,-00003.335680,-00000.398580,-00000.220645,00000.191920,-00000.013549,00000.007465
0000000001786,00001.877857,00001.710785,00002.178321,00002.986658,00002.554427,00002.286045,00002.543065,00002.897667,00002.454760,00002.707429,-00003.343000,-00000.407317,-00000.221695,00000.190642,-00000.012541,00000.008431
0000000001787,00001.875217,00001.709883,00002.177778,00002.985522,00002.555019,00002.286196,00002.542976,00002.896904,00002.454381,00002.707061,-00003.350114,-00000.415860,-00000.222663,00000.189866,-00000.011172,00000.008895
0000000001788,00001.875431,00001.708895,00002.177653,00002.984787,00002.555516,00002.287135,00002.542579,00002.896331,00002.453982,00002.707172,-00003.355620,-00000.423661,-00000.223920,00000.189503,-00000.010314,00000.008991
0000000001789,00001.877899,00001.708490,00002.177916,00002.984545,00002.556383,00002.288353,00002.542503,00002.896407,00002.454022,00002.707584,-00003.358774,-00000.431297,-00000.225470,00000.189930,-00000.009511,00000.009023
0000000001790,00001.882072,00001.708738,00002.177810,00002.984645,00002.557169,00002.289877,00002.542527,00002.895919,00002.454407,00002.707678,-00003.361284,-00000.438300,-00000.226902,00000.190710,-00000.008780,00000.008743
0000000001791,00001.886351,00001.708755,00002.177671,00002.984802,00002.557544,00002.291277,00002.542463,00002.895621,00002.454441,00002.707303,-00003.365058,-00000.444801,-00000.228584,00000.191074,-00000.008096,00000.008044
0000000001792,00001.889540,00001.708603,00002.177944,00002.984524,00002.558576,00002.292212,00002.542484,00002.895568,00002.454406,00002.707384,-00003.370097,-00000.451851,-00000.230167,00000.190649,-00000.007474,00000.007443
0000000001793,00001.892457,00001.708256,00002.177826,00002.983932,00002.559621,00002.293041,00002.542429,00002.895315,00002.454436,00002.707428,-00003.375849,-00000.459199,-00000.231599,00000.190234,-00000.006892,00000.007211
0000000001794,00001.896260,00001.708126,00002.177695,00002.984058,00002.560137,00002.294199,00002.542447,00002.895270,00002.454769,00002.707496,-00003.382678,-00000.467378,-00000.233309,00000.189872,-00000.006363,00000.006699
0000000001795,00001.899832,00001.708193,00002.177594,00002.983917,00002.560664,00002.295268,00002.542400,00002.895054,00002.454794,00002.707533,-00003.390477,-00000.475810,-00000.234165,00000.189518,-00000.005505,00000.006139
0000000001796,00001.903070,00001.708083,00002.177120,00002.983299,00002.561465,00002.295891,00002.542415,00002.894653,00002.455077,00002.707592,-00003.399194,-00000.484586,-00000.234895,00000.189210,-00000.005054,00000.005340
0000000001797,00001.906110,00001.708140,00002.177035,00002.983179,00002.562277,00002.296438,00002.542375,00002.894106,00002.455461,00002.707623,-00003.408373,-00000.493941,-00000.235624,00000.188183,-00000.004686,00000.004500
0000000001798,00001.908504,00001.708046,00002.176994,00002.983015,00002.563322,00002.297332,00002.542388,00002.894490,00002.455340,00002.707673,-00003.418332,-00000.503226,-00000.236245,00000.187196,-00000.004302,00000.003820
0000000001799,00001.910366,00001.708095,00002.176921,00002.983276,00002.564013,00002.298160,00002.542355,00002.894388,00002.455667,00002.707337,-00003.429411,-00000.513004,-00000.236866,00000.186684,-00000.003989,00000.003105
0000000001800,00001.912041,00001.707652,00002.176523,00002.983137,00002.564540,00002.298921,00002.542003,00002.894352,00002.455563,00002.707017,-00003.440792,-00000.522723,-00000.237032,00000.186569,-00000.003300,00000.002526
0000000001801,00001.913627,00001.707693,00002.176461,00002.982996,00002.565128,00002.299625,00002.541974,00002.894628,00002.455841,00002.707093,-00003.451675,-00000.531772,-00000.237560,00000.186497,-00000.002671,00000.001918
0000000001802,00001.914327,00001.707679,00002.176486,00002.983240,00002.565577,00002.300273,00002.542037,00002.894597,00002.456116,00002.706821,-00003.462452,-00000.540046,-00000.237702,00000.186399,-00000.002446,00000.001425
0000000001803,00001.914588,00001.708077,00002.176433,00002.983483,00002.566440,00002.300511,00002.542375,00002.894106,00002.456716,00002.706886,-00003.473168,-00000.547024,-00000.237426,00000.186337,-00000.002273,00000.000907
0000000001804,00001.913733,00001.708428,00002.176091,00002.983691,00002.566459,00002.301062,00002.542429,00002.893718,00002.456950,00002.706654,-00003.484156,-00000.552616,-00000.236821,00000.186253,-00000.002445,00000.000488
0000000001805,00001.912505,00001.708767,00002.176046,00002.983172,00002.566831,00002.301264,00002.542354,00002.893299,00002.456735,00002.706710,-00003.494730,-00000.557105,-00000.236223,00000.186564,-00000.002298,00000.000410
0000000001806,00001.911051,00001.708703,00002.176117,00002.982986,00002.566848,00002.301733,00002.542400,00002.893331,00002.456571,00002.706875,-00003.503721,-00000.560415,-00000.235708,00000.186855,-00000.002082,00000.000415
0000000001807,00001.907829,00001.708628,00002.176079,00002.982907,00002.566802,00002.302268,00002.542337,00002.893338,00002.456751,00002.706922,-00003.511634,-00000.562785,-00000.235562,00000.186757,-00000.001956,00000.000349
0000000001808,00001.904415,00001.708936,00002.176140,00002.982386,00002.567178,00002.302305,00002.542376,00002.893003,00002.456974,00002.707063,-00003.518926,-00000.564877,-00000.235849,00000.186642,-00000.002498,00000.000353
0000000001809,00001.899490,00001.709498,00002.176159,00002.981513,00002.567097,00002.302792,00002.541992,00002.893086,00002.456955,00002.706860,-00003.529693,-00000.568676,-00000.236695,00000.186461,-00000.003940,00000.000301
0000000001810,00001.897518,00001.709753,00002.176132,00002.981147,00002.567427,00002.303233,00002.541946,00002.893091,00002.456722,00002.706894,-00003.532270,-00000.570756,-00000.237624,00000.186752,-00000.004830,00000.000253
0000000001811,00001.896024,00001.709976,00002.176539,00002.981132,00002.567754,00002.303569,00002.542028,00002.893156,00002.456575,00002.707050,-00003.533780,-00000.573361,-00000.238503,00000.187032,-00000.004806,00000.000256
0000000001812,00001.893799,00001.710384,00002.176499,00002.980445,00002.567950,00002.304593,00002.541696,00002.892854,00002.456615,00002.706849,-00003.535082,-00000.577712,-00000.240043,00000.187155,-00000.004817,00000.000218
0000000001813,00001.894492,00001.710568,00002.176479,00002.979817,00002.568242,00002.304859,00002.541300,00002.892911,00002.456393,00002.706928,-00003.533484,-00000.578749,-00000.240716,00000.187004,-00000.004844,-00000.000180
0000000001814,00001.896848,00001.711250,00002.176448,00002.978600,00002.568729,00002.304966,00002.541439,00002.892645,00002.456097,00002.706745,-00003.527574,-00000.579034,-00000.241926,00000.187494,-00000.004486,-00000.000516
0000000001815,00001.897679,00001.711334,00002.176436,00002.977657,00002.568567,00002.304864,00002.541535,00002.892377,00002.456006,00002.706895,-00003.524937,-00000.578000,-00000.242469,00000.187713,-00000.004525,-00000.000876
0000000001816,00001.899199,00001.711177,00002.176048,00002.977124,00002.567917,00002.305333,00002.541277,00002.892190,00002.456131,00002.706354,-00003.520299,-00000.574405,-00000.241605,00000.188823,-00000.004215,-00000.000383
0000000001817,00001.900129,00001.711405,00002.176081,00002.977396,00002.567726,00002.305732,00002.541419,00002.891668,00002.456599,00002.705894,-00003.514536,-00000.568806,-00000.240506,00000.189406,-00000.002863,00000.000399
0000000001818,00001.898903,00001.711502,00002.175754,00002.976912,00002.567300,00002.305872,00002.541072,00002.891798,00002.456383,00002.705673,-00003.511095,-00000.563798,-00000.240388,00000.189087,-00000.002622,00000.000762
0000000001819,00001.894073,00001.713134,00002.175830,00002.976853,00002.565749,00002.306916,00002.540519,00002.892060,00002.456814,00002.705314,-00003.502710,-00000.547441,-00000.240921,00000.186728,-00000.002958,00000.001737
0000000001820,00001.890217,00001.714614,00002.175824,00002.976844,00002.565047,00002.307033,00002.540300,00002.892189,00002.457029,00002.705169,-00003.498212,-00000.536444,-00000.242295,00000.185152,-00000.002746,00000.002721
0000000001821,00001.879422,00001.717960,00002.175891,00002.976432,00002.563106,00002.306816,00002.539862,00002.892030,00002.457001,00002.704885,-00003.489566,-00000.507465,-00000.247261,00000.179387,-00000.003426,00000.004493
0000000001822,00001.873375,00001.720205,00002.175898,00002.976813,00002.562580,00002.306857,00002.540011,00002.891748,00002.457185,00002.704694,-00003.484632,-00000.490575,-00000.250347,00000.176078,-00000.003903,00000.005652
0000000001823,00001.860732,00001.724896,00002.175953,00002.976768,00002.560643,00002.306666,00002.539616,00002.891292,00002.457134,00002.704481,-00003.474740,-00000.454994,-00000.257018,00000.169486,-00000.003686,00000.007714
0000000001824,00001.854135,00001.727733,00002.175941,00002.977126,00002.559630,00002.306784,00002.539481,00002.891417,00002.457321,00002.704020,-00003.469425,-00000.436043,-00000.260207,00000.166581,-00000.003047,00000.008267
0000000001825,00001.840724,00001.733844,00002.175990,00002.977397,00002.558132,00002.306605,00002.539165,00002.891373,00002.457612,00002.703907,-00003.458892,-00000.396961,-00000.266500,00000.160313,-00000.001868,00000.009214
0000000001826,00001.833873,00001.736373,00002.176403,00002.977370,00002.557590,00002.306675,00002.539356,00002.891554,00002.457725,00002.703782,-00003.453669,-00000.376886,-00000.269601,00000.156974,-00000.001691,00000.009620
0000000001827,00001.821661,00001.740111,00002.176020,00002.977605,00002.556033,00002.306512,00002.539422,00002.891126,00002.457957,00002.703704,-00003.442940,-00000.336443,-00000.277037,00000.147781,-00000.001076,00000.010366
0000000001828,00001.815505,00001.741406,00002.175650,00002.977825,00002.554682,00002.306268,00002.539338,00002.890941,00002.458072,00002.703366,-00003.438208,-00000.316857,-00000.280920,00000.143139,-00000.001045,00000.010707
0000000001829,00001.803485,00001.743670,00002.175380,00002.977993,00002.552105,00002.305440,00002.539406,00002.890605,00002.458252,00002.702987,-00003.427964,-00000.278810,-00000.288124,00000.133101,-00000.001615,00000.012018
0000000001830,00001.798332,00001.744658,00002.175417,00002.977922,00002.550891,00002.305220,00002.539215,00002.890453,00002.458322,00002.702601,-00003.422093,-00000.259929,-00000.291135,00000.128121,-00000.001089,00000.012577
0000000001831,00001.789591,00001.746801,00002.175181,00002.978075,00002.549241,00002.304548,00002.538939,00002.890190,00002.458827,00002.702699,-00003.410254,-00000.223092,-00000.295006,00000.118139,-00000.000201,00000.013609
0000000001832,00001.786665,00001.747963,00002.175262,00002.978311,00002.548716,00002.304860,00002.539204,00002.890438,00002.459987,00002.702753,-00003.403543,-00000.205454,-00000.295595,00000.112780,00000.000173,00000.014082
0000000001833,00001.782199,00001.749615,00002.175412,00002.979495,00002.548478,00002.304967,00002.540018,00002.891265,00002.463510,00002.702828,-00003.385030,-00000.173089,-00000.295175,00000.101452,00000.000510,00000.014891
0000000001834,00001.780209,00001.750542,00002.175844,00002.979660,00002.548347,00002.305140,00002.540572,00002.892569,00002.464689,00002.703216,-00003.374937,-00000.158574,-00000.294646,00000.095475,00000.000472,00000.015236
0000000001835,00001.776703,00001.752173,00002.175907,00002.980280,00002.548163,00002.304842,00002.541907,00002.893805,00002.467150,00002.703585,-00003.355599,-00000.133543,-00000.294730,00000.083092,-00000.000324,00000.016598
0000000001836,00001.774081,00001.754649,00002.175961,00002.981534,00002.548370,00002.304952,00002.544133,00002.894857,00002.469608,00002.703899,-00003.334057,-00000.112959,-00000.295890,00000.070736,-00000.002453,00000.017758
0000000001837,00001.773493,00001.755569,00002.176049,00002.981828,00002.548318,00002.305201,00002.544751,00002.895157,00002.470665,00002.704291,-00003.322302,-00000.103457,-00000.297149,00000.064949,-00000.003406,00000.018269
0000000001838,00001.772937,00001.756395,00002.176007,00002.981876,00002.548183,00002.305045,00002.545302,00002.895390,00002.471338,00002.704530,-00003.311002,-00000.094348,-00000.298329,00000.059129,-00000.003902,00000.018745
0000000001839,00001.771601,00001.759695,00002.176046,00002.982167,00002.548024,00002.304761,00002.546660,00002.895118,00002.473173,00002.705066,-00003.292826,-00000.075965,-00000.301493,00000.047797,-00000.004773,00000.018860
0000000001840,00001.770866,00001.761288,00002.176110,00002.982071,00002.548350,00002.304633,00002.547416,00002.895080,00002.473939,00002.705350,-00003.283890,-00000.066339,-00000.303440,00000.042260,-00000.004792,00000.018922
0000000001841,00001.770563,00001.764223,00002.175771,00002.982695,00002.547803,00002.304773,00002.548460,00002.895217,00002.475750,00002.705402,-00003.263216,-00000.047767,-00000.308747,00000.031622,-00000.004080,00000.019736
0000000001842,00001.771031,00001.766359,00002.176208,00002.983590,00002.547701,00002.304893,00002.549348,00002.895334,00002.477292,00002.705809,-00003.245979,-00000.032683,-00000.313627,00000.021841,-00000.004562,00000.020429
0000000001843,00001.770994,00001.767504,00002.176178,00002.984511,00002.548038,00002.304757,00002.550309,00002.895139,00002.478541,00002.705980,-00003.237215,-00000.025272,-00000.315429,00000.017502,-00000.005384,00000.020718
0000000001844,00001.771429,00001.768903,00002.176217,00002.985440,00002.548339,00002.304632,00002.550830,00002.895070,00002.479693,00002.706518,-00003.227677,-00000.016939,-00000.317056,00000.013877,-00000.005697,00000.021382
0000000001845,00001.777935,00001.770706,00002.176225,00002.987740,00002.548157,00002.305135,00002.551366,00002.895208,00002.481737,00002.706759,-00003.210282,-00000.003173,-00000.319612,00000.005646,-00000.005576,00000.022556
0000000001846,00001.781105,00001.771899,00002.175840,00002.989079,00002.548093,00002.305346,00002.551807,00002.895376,00002.482642,00002.706883,-00003.204201,00000.002398,-00000.320193,00000.001830,-00000.004829,00000.023075
0000000001847,00001.789438,00001.773619,00002.176267,00002.990476,00002.549036,00002.305743,00002.552923,00002.896194,00002.484248,00002.707433,-00003.196102,00000.009660,-00000.320469,-00000.004972,-00000.003385,00000.024360
0000000001848,00001.801973,00001.774721,00002.175905,00002.993116,00002.548750,00002.306081,00002.553873,00002.897980,00002.485977,00002.707900,-00003.189570,00000.012214,-00000.319253,-00000.010763,-00000.002882,00000.026179
0000000001849,00001.808610,00001.774823,00002.175925,00002.994182,00002.549001,00002.306239,00002.554101,00002.899233,00002.486582,00002.708685,-00003.186347,00000.012776,-00000.318323,-00000.013339,-00000.002605,00000.026837
0000000001850,00001.832081,00001.775746,00002.175251,00002.996997,00002.549446,00002.307229,00002.554876,00002.901654,00002.487965,00002.710055,-00003.175098,00000.013778,-00000.317063,-00000.017886,-00000.001855,00000.028651
0000000001851,00001.843507,00001.776148,00002.175334,00002.998002,00002.550006,00002.307648,00002.555425,00002.902082,00002.488394,00002.711015,-00003.167318,00000.014588,-00000.317081,-00000.019527,-00000.001363,00000.029410
0000000001852,00001.864691,00001.776511,00002.175110,00003.000611,00002.549938,00002.309154,00002.555640,00002.904080,00002.489507,00002.712039,-00003.151281,00000.016047,-00000.317820,-00000.022791,-00000.000435,00000.029753
0000000001853,00001.874136,00001.776891,00002.174806,00003.001795,00002.550456,00002.309461,00002.556097,00002.904437,00002.490197,00002.712523,-00003.143050,00000.016702,-00000.318127,-00000.024434,-00000.000364,00000.029750
0000000001854,00001.891128,00001.776418,00002.174661,00003.003477,00002.551047,00002.310335,00002.556576,00002.905359,00002.491042,00002.713685,-00003.132072,00000.016395,-00000.319798,-00000.028419,-00000.002124,00000.028591
0000000001855,00001.898023,00001.776411,00002.174395,00003.004052,00002.551122,00002.310185,00002.557014,00002.905160,00002.491624,00002.713960,-00003.129432,00000.015134,-00000.321107,-00000.031092,-00000.003472,00000.028279
0000000001856,00001.904868,00001.776015,00002.174174,00003.004910,00002.551188,00002.310716,00002.557345,00002.905056,00002.492124,00002.714311,-00003.127080,00000.013957,-00000.323035,-00000.033626,-00000.005073,00000.027968
0000000001857,00001.916202,00001.775309,00002.173760,00003.005403,00002.551308,00002.310677,00002.557638,00002.904435,00002.492683,00002.714482,-00003.126095,00000.010068,-00000.328331,-00000.038058,-00000.007221,00000.027800
0000000001858,00001.925851,00001.774346,00002.173771,00003.005824,00002.550684,00002.311007,00002.557161,00002.903543,00002.492795,00002.714264,-00003.127434,00000.007845,-00000.333201,-00000.042194,-00000.006510,00000.028019
0000000001859,00001.928653,00001.774079,00002.173607,00003.005861,00002.550421,00002.311223,00002.557169,00002.902386,00002.492528,00002.713762,-00003.128918,00000.006487,-00000.335369,-00000.045295,-00000.006007,00000.028498
0000000001860,00001.930799,00001.773525,00002.173417,00003.005093,00002.550516,00002.310925,00002.556756,00002.901333,00002.491803,00002.713716,-00003.129662,00000.004502,-00000.338073,-00000.048618,-00000.005542,00000.028932
0000000001861,00001.933924,00001.771376,00002.171664,00003.002294,00002.550373,00002.310493,00002.555685,00002.899815,00002.489144,00002.713975,-00003.128293,-00000.002335,-00000.345486,-00000.056263,-00000.003267,00000.028620
0000000001862,00001.935337,00001.770256,00002.170565,00003.001086,00002.550129,00002.310341,00002.555019,00002.900065,00002.487244,00002.713866,-00003.127099,-00000.005535,-00000.348964,-00000.059799,-00000.002647,00000.028296
0000000001863,00001.937061,00001.768955,00002.168874,00002.998883,00002.550043,00002.309995,00002.554569,00002.900186,00002.484537,00002.714103,-00003.123209,-00000.010517,-00000.354031,-00000.064693,-00000.001891,00000.027716
0000000001864,00001.938529,00001.768211,00002.167797,00002.996645,00002.549970,00002.310064,00002.554186,00002.899926,00002.482596,00002.714304,-00003.116995,-00000.015846,-00000.359071,-00000.069222,-00000.001247,00000.026497
0000000001865,00001.938081,00001.768059,00002.167658,00002.995485,00002.549742,00002.309907,00002.554371,00002.899497,00002.481906,00002.714226,-00003.113324,-00000.019513,-00000.362212,-00000.071476,-00000.001135,00000.026331
0000000001866,00001.936876,00001.768303,00002.167968,00002.993651,00002.550271,00002.309760,00002.554585,00002.898980,00002.480943,00002.714476,-00003.110980,-00000.023285,-00000.364812,-00000.073440,-00000.001061,00000.026185
0000000001867,00001.932567,00001.768018,00002.168114,00002.990740,00002.550527,00002.309138,00002.554563,00002.898174,00002.479173,00002.714259,-00003.109850,-00000.030706,-00000.370063,-00000.078120,-00000.001629,00000.026282
0000000001868,00001.927810,00001.767051,00002.168602,00002.987536,00002.550745,00002.308608,00002.554544,00002.897488,00002.477667,00002.714800,-00003.111065,-00000.039926,-00000.375621,-00000.083918,-00000.002112,00000.027816
0000000001869,00001.926281,00001.766648,00002.169188,00002.986249,00002.551276,00002.308566,00002.554704,00002.897223,00002.476978,00002.715061,-00003.113898,-00000.045509,-00000.377914,-00000.086860,-00000.001944,00000.028694
