0000000002132,00002.757571,00002.468996,00002.464916,00003.482465,00003.027544,00003.046765,00002.770566,00003.284052,00002.830897,00003.419394,-00000.570615,-00000.223768,-00000.582158,-00000.062535,-00000.160437,-00000.193639
0000000002133,00002.757503,00002.469008,00002.464898,00003.482431,00003.027499,00003.046874,00002.770672,00003.283645,00002.830790,00003.419160,-00000.573229,-00000.223837,-00000.582023,-00000.062189,-00000.162015,-00000.193412
0000000002134,00002.757476,00002.469365,00002.464804,00003.482328,00003.027937,00003.046839,00002.770716,00003.283670,00002.830420,00003.419203,-00000.575737,-00000.223871,-00000.581935,-00000.061943,-00000.163427,-00000.193143
0000000002135,00002.757056,00002.469738,00002.464788,00003.482299,00003.028624,00003.046570,00002.771169,00003.283686,00002.830691,00003.419729,-00000.577963,-00000.223930,-00000.581458,-00000.061649,-00000.164407,-00000.192950
0000000002136,00002.757033,00002.469680,00002.464346,00003.482574,00003.028272,00003.046903,00002.770843,00003.283345,00002.830739,00003.419403,-00000.580097,-00000.223958,-00000.581384,-00000.061439,-00000.165246,-00000.192721
0000000002137,00002.757038,00002.469998,00002.464332,00003.482912,00003.028494,00003.047036,00002.770866,00003.283359,00002.830970,00003.419488,-00000.581992,-00000.224008,-00000.581340,-00000.061189,-00000.166081,-00000.192556
0000000002138,00002.757381,00002.470311,00002.464319,00003.483509,00003.028194,00003.047682,00002.770952,00003.283794,00002.831011,00003.419574,-00000.583810,-00000.224032,-00000.581277,-00000.061010,-00000.167158,-00000.192361
0000000002139,00002.757385,00002.470581,00002.464307,00003.483434,00003.028383,00003.047796,00002.771334,00003.283805,00002.831208,00003.420009,-00000.585423,-00000.224075,-00000.581239,-00000.060797,-00000.168231,-00000.192221
0000000002140,00002.756952,00002.470485,00002.464295,00003.483217,00003.028490,00003.047620,00002.771407,00003.283813,00002.831242,00003.420445,-00000.587333,-00000.224096,-00000.581185,-00000.061008,-00000.169148,-00000.192055
0000000002141,00002.756592,00002.470715,00002.464286,00003.483516,00003.028651,00003.047717,00002.771369,00003.283823,00002.831410,00003.420452,-00000.589069,-00000.224132,-00000.581154,-00000.060826,-00000.170425,-00000.191935
0000000002142,00002.756223,00002.470633,00002.464275,00003.483331,00003.028743,00003.047568,00002.771794,00003.283829,00002.831439,00003.420823,-00000.591057,-00000.224150,-00000.581108,-00000.060643,-00000.171568,-00000.191431
0000000002143,00002.756280,00002.470829,00002.464267,00003.482860,00003.028880,00003.047287,00002.771762,00003.283838,00002.831219,00003.420829,-00000.592898,-00000.224181,-00000.581081,-00000.060488,-00000.172655,-00000.190967
0000000002144,00002.755966,00002.470759,00002.464259,00003.482702,00003.028957,00003.047160,00002.772124,00003.284206,00002.831244,00003.421145,-00000.594591,-00000.224196,-00000.581042,-00000.060695,-00000.173628,-00000.190900
0000000002145,00002.756015,00002.470563,00002.464252,00003.482664,00003.028711,00003.047284,00002.771734,00003.284213,00002.831056,00003.420788,-00000.596158,-00000.224222,-00000.581019,-00000.060564,-00000.174916,-00000.190868
0000000002146,00002.756473,00002.470866,00002.464607,00003.482893,00003.028778,00003.047538,00002.771679,00003.284527,00002.830715,00003.421057,-00000.597599,-00000.224235,-00000.580623,-00000.060740,-00000.176108,-00000.191174
0000000002147,00002.756877,00002.470700,00002.464601,00003.482498,00003.028568,00003.047644,00002.771710,00003.284896,00002.830555,00003.421478,-00000.598933,-00000.223894,-00000.580241,-00000.060628,-00000.177204,-00000.191147
0000000002148,00002.756904,00002.470595,00002.464541,00003.482692,00003.028262,00003.047861,00002.771300,00003.285163,00002.830627,00003.421707,-00000.600160,-00000.223905,-00000.579903,-00000.060777,-00000.178218,-00000.191044
0000000002149,00002.756885,00002.470453,00002.464536,00003.482719,00003.028083,00003.047951,00002.770964,00003.285114,00002.830492,00003.421703,-00000.601296,-00000.223615,-00000.579578,-00000.061045,-00000.179152,-00000.191384
0000000002150,00002.756909,00002.470364,00002.464122,00003.482884,00003.027460,00003.048135,00002.770615,00003.284615,00002.830553,00003.421172,-00000.602340,-00000.223262,-00000.579654,-00000.061172,-00000.180015,-00000.191660
0000000002151,00002.756530,00002.470606,00002.464117,00003.482907,00003.027671,00003.047849,00002.771054,00003.284574,00002.830800,00003.421531,-00000.603307,-00000.223015,-00000.579377,-00000.061400,-00000.180447,-00000.191948
0000000002152,00002.756912,00002.470530,00002.464491,00003.483411,00003.027502,00003.048006,00002.770758,00003.284875,00002.830852,00003.421442,-00000.603833,-00000.222714,-00000.579078,-00000.061146,-00000.181182,-00000.192183
0000000002153,00002.756953,00002.470736,00002.464487,00003.483430,00003.027319,00003.047762,00002.770769,00003.284840,00002.831063,00003.421385,-00000.604656,-00000.222504,-00000.578842,-00000.060977,-00000.181549,-00000.192066
0000000002154,00002.756916,00002.471034,00002.464442,00003.483496,00003.027539,00003.047533,00002.771242,00003.284734,00002.831107,00003.421309,-00000.605467,-00000.222248,-00000.578589,-00000.060761,-00000.181812,-00000.191903
0000000002155,00002.757313,00002.470847,00002.464801,00003.483512,00003.027746,00003.047688,00002.771251,00003.285066,00002.830924,00003.421261,-00000.606167,-00000.222069,-00000.578388,-00000.060980,-00000.182125,-00000.191804
0000000002156,00002.757281,00002.471101,00002.464763,00003.483931,00003.027933,00003.047493,00002.771291,00003.284976,00002.831324,00003.420834,-00000.606858,-00000.221851,-00000.578172,-00000.060795,-00000.182349,-00000.191665
0000000002157,00002.757256,00002.470941,00002.464706,00003.483945,00003.027746,00003.047625,00002.771299,00003.284896,00002.831168,00003.420793,-00000.607454,-00000.221699,-00000.578001,-00000.060619,-00000.182253,-00000.191581
0000000002158,00002.757229,00002.471157,00002.464674,00003.484302,00003.027905,00003.047822,00002.771695,00003.284819,00002.831509,00003.420791,-00000.608042,-00000.221513,-00000.577817,-00000.060462,-00000.182081,-00000.191462
0000000002159,00002.757208,00002.471384,00002.464988,00003.484313,00003.028109,00003.047572,00002.771702,00003.284752,00002.831376,00003.420756,-00000.608550,-00000.221384,-00000.577671,-00000.060312,-00000.181998,-00000.191390
0000000002160,00002.757185,00002.471206,00002.464597,00003.484254,00003.027519,00003.047377,00002.771677,00003.284323,00002.831303,00003.420756,-00000.609050,-00000.221225,-00000.577514,-00000.060178,-00000.181852,-00000.191290
0000000002161,00002.757168,00002.471399,00002.464503,00003.484627,00003.026967,00003.047526,00002.771683,00003.283903,00002.831190,00003.420726,-00000.609845,-00000.221115,-00000.577390,-00000.060051,-00000.181782,-00000.191228
0000000002162,00002.757148,00002.471247,00002.464896,00003.484577,00003.027190,00003.047360,00002.772024,00003.284264,00002.831128,00003.421088,-00000.610271,-00000.220981,-00000.577257,-00000.059937,-00000.181657,-00000.191506
0000000002163,00002.757496,00002.471048,00002.465177,00003.484531,00003.027446,00003.047488,00002.772029,00003.284631,00002.831032,00003.421425,-00000.610585,-00000.220887,-00000.577152,-00000.059828,-00000.181960,-00000.191453
0000000002164,00002.757479,00002.470919,00002.465149,00003.484851,00003.027273,00003.047709,00002.771957,00003.284939,00002.831342,00003.421733,-00000.610947,-00000.220409,-00000.577038,-00000.059731,-00000.181854,-00000.191327
0000000002165,00002.757412,00002.470750,00002.465389,00003.484450,00003.027491,00003.047455,00002.771961,00003.285252,00002.831260,00003.422021,-00000.611577,-00000.220329,-00000.576948,-00000.059639,-00000.181750,-00000.191282
0000000002166,00002.757398,00002.470640,00002.465728,00003.484360,00003.027344,00003.047643,00002.771900,00003.285513,00002.831162,00003.422283,-00000.611886,-00000.219923,-00000.576852,-00000.059556,-00000.181296,-00000.191174
0000000002167,00002.757704,00002.470496,00002.465932,00003.484381,00003.027166,00003.047789,00002.771541,00003.285780,00002.831092,00003.422165,-00000.612423,-00000.219492,-00000.576775,-00000.059840,-00000.180845,-00000.191136
0000000002168,00002.757692,00002.470402,00002.466221,00003.483941,00003.027404,00003.047587,00002.771488,00003.285639,00002.831008,00003.422025,-00000.613048,-00000.219509,-00000.576693,-00000.059770,-00000.180459,-00000.191044
0000000002169,00002.757226,00002.470642,00002.466032,00003.483959,00003.027253,00003.047349,00002.771545,00003.285141,00002.831311,00003.421924,-00000.613505,-00000.219505,-00000.576628,-00000.059649,-00000.180074,-00000.191012
0000000002170,00002.757216,00002.470925,00002.465915,00003.484310,00003.027092,00003.047176,00002.771501,00003.284659,00002.831602,00003.421806,-00000.614037,-00000.219519,-00000.576558,-00000.059589,-00000.179746,-00000.190934
0000000002171,00002.757183,00002.471130,00002.465754,00003.484325,00003.026963,00003.046974,00002.771549,00003.284234,00002.831860,00003.421720,-00000.614063,-00000.219153,-00000.576503,-00000.059486,-00000.179055,-00000.190907
0000000002172,00002.757174,00002.471008,00002.466017,00003.483899,00003.027190,00003.046827,00002.771512,00003.284186,00002.831383,00003.421982,-00000.614154,-00000.218803,-00000.576443,-00000.059435,-00000.178413,-00000.191203
0000000002173,00002.757509,00002.470819,00002.466243,00003.483912,00003.027080,00003.046654,00002.771553,00003.284551,00002.831240,00003.422272,-00000.614176,-00000.218491,-00000.576396,-00000.059348,-00000.177825,-00000.191542
0000000002174,00002.757501,00002.470716,00002.466104,00003.483549,00003.027273,00003.046167,00002.771158,00003.284147,00002.830833,00003.422494,-00000.614253,-00000.218193,-00000.576345,-00000.059304,-00000.177278,-00000.191432
0000000002175,00002.757786,00002.470555,00002.465933,00003.483560,00003.027179,00003.046382,00002.770830,00003.284094,00002.830712,00003.422741,-00000.614634,-00000.218290,-00000.576305,-00000.059230,-00000.177504,-00000.191358
0000000002176,00002.758142,00002.470467,00002.466178,00003.483613,00003.027343,00003.046693,00002.770857,00003.284477,00002.830728,00003.422931,-00000.615063,-00000.218036,-00000.576262,-00000.058830,-00000.177764,-00000.191264
0000000002177,00002.757659,00002.470693,00002.466033,00003.483623,00003.027264,00003.046514,00002.770941,00003.284069,00002.830625,00003.422415,-00000.615388,-00000.217756,-00000.575865,-00000.058766,-00000.177956,-00000.190838
0000000002178,00002.757600,00002.470618,00002.465878,00003.483668,00003.027041,00003.046778,00002.770963,00003.284032,00002.831002,00003.422214,-00000.615752,-00000.217540,-00000.575465,-00000.058789,-00000.178177,-00000.190758
0000000002179,00002.757914,00002.470447,00002.465755,00003.484039,00003.026973,00003.046988,00002.771034,00003.284047,00002.830913,00003.422138,-00000.615666,-00000.217301,-00000.575490,-00000.058735,-00000.177978,-00000.190758
0000000002180,00002.757864,00002.470746,00002.465623,00003.484078,00003.026783,00003.047213,00002.771054,00003.284015,00002.831234,00003.421966,-00000.615614,-00000.217117,-00000.575513,-00000.058754,-00000.177803,-00000.190690
0000000002181,00002.758131,00002.470601,00002.465881,00003.484031,00003.026725,00003.047392,00002.770752,00003.284029,00002.831159,00003.421902,-00000.615540,-00000.216915,-00000.575534,-00000.058708,-00000.177633,-00000.190690
0000000002182,00002.758088,00002.470855,00002.465769,00003.484064,00003.026926,00003.047221,00002.771131,00003.284364,00002.831432,00003.422481,-00000.615133,-00000.216758,-00000.575553,-00000.058724,-00000.177485,-00000.190632
0000000002183,00002.758316,00002.471095,00002.465625,00003.484387,00003.026877,00003.047374,00002.771237,00003.284739,00002.831731,00003.422789,-00000.615071,-00000.216222,-00000.575571,-00000.058322,-00000.176978,-00000.190632
0000000002184,00002.758279,00002.471311,00002.465892,00003.484052,00003.026686,00003.046865,00002.771196,00003.284662,00002.831601,00003.422557,-00000.614724,-00000.215726,-00000.575587,-00000.057974,-00000.176488,-00000.190583
0000000002185,00002.758110,00002.471878,00002.466133,00003.484327,00003.027007,00003.046632,00002.771649,00003.284617,00002.831855,00003.422819,-00000.614308,-00000.215270,-00000.575603,-00000.057994,-00000.176057,-00000.190583
0000000002186,00002.758442,00002.472062,00002.466361,00003.484767,00003.026844,00003.046925,00002.771615,00003.284552,00002.831745,00003.422621,-00000.614013,-00000.214848,-00000.575617,-00000.058060,-00000.175640,-00000.190541
0000000002187,00002.758298,00002.472182,00002.466203,00003.484276,00003.027117,00003.046726,00002.772001,00003.284514,00002.831961,00003.422481,-00000.613659,-00000.214460,-00000.575993,-00000.058077,-00000.175272,-00000.190541
0000000002188,00002.758218,00002.472339,00002.466397,00003.484651,00003.027341,00003.046612,00002.772334,00003.284458,00002.832230,00003.422313,-00000.613407,-00000.214100,-00000.576004,-00000.057771,-00000.174918,-00000.190506
0000000002189,00002.758095,00002.472440,00002.466262,00003.484595,00003.027211,00003.046806,00002.772663,00003.284426,00002.832414,00003.422194,-00000.612743,-00000.213770,-00000.575962,-00000.057423,-00000.174242,-00000.190506
0000000002190,00002.758027,00002.472574,00002.466064,00003.484189,00003.027401,00003.046347,00002.772584,00003.284016,00002.832280,00003.422051,-00000.611803,-00000.213464,-00000.575972,-00000.057162,-00000.173578,-00000.190475
0000000002191,00002.758285,00002.472298,00002.466313,00003.484141,00003.027291,00003.046512,00002.772500,00003.284351,00002.832074,00003.421950,-00000.610875,-00000.212820,-00000.575935,-00000.056865,-00000.173002,-00000.190475
0000000002192,00002.757864,00002.472411,00002.466507,00003.483796,00003.027453,00003.046483,00002.772796,00003.284365,00002.831960,00003.421828,-00000.610075,-00000.212196,-00000.575944,-00000.056643,-00000.172436,-00000.190449
0000000002193,00002.758084,00002.472176,00002.466718,00003.483755,00003.027359,00003.046261,00002.772362,00003.284650,00002.831784,00003.421741,-00000.609285,-00000.211285,-00000.575913,-00000.056391,-00000.171221,-00000.190450
0000000002194,00002.758089,00002.472636,00002.466884,00003.483823,00003.027497,00003.046237,00002.772614,00003.284662,00002.832050,00003.422001,-00000.608604,-00000.210392,-00000.575920,-00000.056202,-00000.170014,-00000.190427
0000000002195,00002.757913,00002.472799,00002.466701,00003.483789,00003.027054,00003.046048,00002.772608,00003.284542,00002.832263,00003.421927,-00000.607931,-00000.209616,-00000.575894,-00000.055987,-00000.168979,-00000.190428
0000000002196,00002.757917,00002.472464,00002.466842,00003.483122,00003.026808,00003.045664,00002.772459,00003.284552,00002.832127,00003.422148,-00000.607352,-00000.208855,-00000.575900,-00000.055826,-00000.167952,-00000.190409
0000000002197,00002.757768,00002.472603,00002.466686,00003.482730,00003.026794,00003.045503,00002.772454,00003.284087,00002.832308,00003.422085,-00000.607142,-00000.208195,-00000.575877,-00000.055643,-00000.167071,-00000.190409
0000000002198,00002.757771,00002.473044,00002.466806,00003.482887,00003.026948,00003.045903,00002.772327,00003.284096,00002.832555,00003.421910,-00000.607011,-00000.207548,-00000.575883,-00000.055506,-00000.166559,-00000.190030
0000000002199,00002.757644,00002.473162,00002.466674,00003.482916,00003.026936,00003.045765,00002.772323,00003.284063,00002.832710,00003.421857,-00000.606833,-00000.206986,-00000.575864,-00000.054988,-00000.165809,-00000.189667
0000000002200,00002.757646,00002.473174,00002.466413,00003.482687,00003.026704,00003.045742,00002.772215,00003.283707,00002.832919,00003.421708,-00000.606721,-00000.206434,-00000.575868,-00000.054871,-00000.165010,-00000.189708
0000000002201,00002.757901,00002.473274,00002.466663,00003.482349,00003.027057,00003.045626,00002.772574,00003.284042,00002.832688,00003.422025,-00000.606206,-00000.205956,-00000.575852,-00000.054793,-00000.164009,-00000.189399
0000000002202,00002.757903,00002.473285,00002.466804,00003.481792,00003.027222,00003.045243,00002.772482,00003.283739,00002.832504,00003.421898,-00000.606112,-00000.205487,-00000.575856,-00000.054693,-00000.162966,-00000.189070
0000000002203,00002.757757,00002.473371,00002.467017,00003.481867,00003.027522,00003.045507,00002.772425,00003.284024,00002.832670,00003.421806,-00000.606036,-00000.205079,-00000.575842,-00000.054626,-00000.162114,-00000.189170
0000000002204,00002.758122,00002.473017,00002.467137,00003.481392,00003.027663,00003.045544,00002.771984,00003.284129,00002.832151,00003.422061,-00000.605593,-00000.204680,-00000.575482,-00000.054179,-00000.161226,-00000.188891
0000000002205,00002.757997,00002.473090,00002.466955,00003.481456,00003.027556,00003.045406,00002.772298,00003.284009,00002.832292,00003.422345,-00000.605528,-00000.204333,-00000.575470,-00000.054122,-00000.160501,-00000.188613
0000000002206,00002.757945,00002.473514,00002.467057,00003.481415,00003.027676,00003.045075,00002.772649,00003.284099,00002.832212,00003.422199,-00000.605151,-00000.203993,-00000.575527,-00000.054104,-00000.159382,-00000.188375
0000000002207,00002.758202,00002.473576,00002.466903,00003.481469,00003.027584,00003.045319,00002.772553,00003.283996,00002.832333,00003.422078,-00000.604733,-00000.203698,-00000.575517,-00000.054056,-00000.158402,-00000.188138
0000000002208,00002.758158,00002.474300,00002.466989,00003.482159,00003.027686,00003.045400,00002.772851,00003.284073,00002.832628,00003.421953,-00000.604412,-00000.203408,-00000.575565,-00000.054040,-00000.157450,-00000.187936
0000000002209,00002.757651,00002.474353,00002.466858,00003.481843,00003.027608,00003.044883,00002.772770,00003.283623,00002.832730,00003.421850,-00000.604057,-00000.203157,-00000.575557,-00000.053999,-00000.156615,-00000.187735
0000000002210,00002.757976,00002.474607,00002.467295,00003.482068,00003.027333,00003.045315,00002.772661,00003.284050,00002.832982,00003.422108,-00000.603783,-00000.202910,-00000.575598,-00000.053986,-00000.155442,-00000.187562
0000000002211,00002.758270,00002.474652,00002.467545,00003.481436,00003.027266,00003.045238,00002.772592,00003.284030,00002.832706,00003.422383,-00000.603481,-00000.202696,-00000.575591,-00000.053951,-00000.154369,-00000.187391
0000000002212,00002.758183,00002.474868,00002.467554,00003.481264,00003.027394,00003.045242,00002.772499,00003.283669,00002.832920,00003.422239,-00000.602885,-00000.202487,-00000.575263,-00000.053577,-00000.153370,-00000.187244
0000000002213,00002.758071,00002.474543,00002.467768,00003.480726,00003.026975,00003.045176,00002.772078,00003.283651,00002.832322,00003.422473,-00000.602264,-00000.202305,-00000.574894,-00000.053184,-00000.152819,-00000.187098
0000000002214,00002.757998,00002.474727,00002.467776,00003.480580,00003.027084,00003.045180,00002.772361,00003.283706,00002.832504,00003.422713,-00000.601757,-00000.201763,-00000.574978,-00000.052866,-00000.151968,-00000.186973
0000000002215,00002.758265,00002.475539,00002.467957,00003.481211,00003.027090,00003.045487,00002.772365,00003.283692,00002.832722,00003.422912,-00000.600866,-00000.201245,-00000.574664,-00000.052531,-00000.151137,-00000.186849
0000000002216,00002.758565,00002.475695,00002.467964,00003.481086,00003.027183,00003.045128,00002.772607,00003.283739,00002.832514,00003.423843,-00000.600072,-00000.201147,-00000.574372,-00000.052260,-00000.150050,-00000.186742
0000000002217,00002.758792,00002.476024,00002.468118,00003.481260,00003.027188,00003.045389,00002.772610,00003.283726,00002.832336,00003.426552,-00000.598951,-00000.201069,-00000.574105,-00000.051976,-00000.148616,-00000.186637
0000000002218,00002.758322,00002.476157,00002.467761,00003.481517,00003.026904,00003.045446,00002.772453,00003.283403,00002.832522,00003.429520,-00000.597912,-00000.200986,-00000.573856,-00000.051745,-00000.147328,-00000.186546
0000000002219,00002.758516,00002.476074,00002.468256,00003.481302,00003.027634,00003.045305,00002.772456,00003.283755,00002.832370,00003.434729,-00000.596957,-00000.200919,-00000.573992,-00000.051503,-00000.146471,-00000.186456
0000000002220,00002.758479,00002.475825,00002.468314,00003.480796,00003.027392,00003.044991,00002.771959,00003.283843,00002.832165,00003.440159,-00000.596435,-00000.200848,-00000.573780,-00000.051307,-00000.145737,-00000.186379
0000000002221,00002.758644,00002.476117,00002.468373,00003.480975,00003.027651,00003.045234,00002.771962,00003.284143,00002.832399,00003.444593,-00000.595985,-00000.200792,-00000.573895,-00000.051100,-00000.145007,-00000.186302
0000000002222,00002.758975,00002.476267,00002.468423,00003.481270,00003.027808,00003.045692,00002.771902,00003.284218,00002.832225,00003.448852,-00000.595541,-00000.200731,-00000.573716,-00000.050933,-00000.144382,-00000.186237
0000000002223,00002.758752,00002.476516,00002.468109,00003.481060,00003.027302,00003.045536,00002.771541,00003.283748,00002.832061,00003.452264,-00000.595158,-00000.200683,-00000.573814,-00000.051120,-00000.143761,-00000.186171
0000000002224,00002.759034,00002.476644,00002.468152,00003.480948,00003.027073,00003.045926,00002.771490,00003.284174,00002.831913,00003.455890,-00000.594780,-00000.200631,-00000.573660,-00000.050978,-00000.143229,-00000.186115
0000000002225,00002.759207,00002.476856,00002.468611,00003.480769,00003.027369,00003.046156,00002.771546,00003.284499,00002.831774,00003.459520,-00000.594454,-00000.200590,-00000.573381,-00000.050775,-00000.142700,-00000.186060
0000000002226,00002.759084,00002.477327,00002.468647,00003.480673,00003.027899,00003.045762,00002.771865,00003.284499,00002.832373,00003.462607,-00000.594132,-00000.200546,-00000.573613,-00000.050653,-00000.142610,-00000.186012
0000000002227,00002.759232,00002.477508,00002.468675,00003.480521,00003.027788,00003.045595,00002.771550,00003.284414,00002.832254,00003.465335,-00000.593855,-00000.200149,-00000.573376,-00000.050843,-00000.142522,-00000.185965
0000000002228,00002.759490,00002.477546,00002.469068,00003.480440,00003.028239,00003.045623,00002.771822,00003.284414,00002.832039,00003.468325,-00000.593218,-00000.199749,-00000.573211,-00000.050740,-00000.142446,-00000.185925
0000000002229,00002.759253,00002.478063,00002.469092,00003.480674,00003.028507,00003.045481,00002.771916,00003.283978,00002.832301,00003.470285,-00000.592982,-00000.199410,-00000.573008,-00000.050901,-00000.142371,-00000.185884
0000000002230,00002.758747,00002.478821,00002.469064,00003.480967,00003.028892,00003.045505,00002.772147,00003.284341,00002.832843,00003.472831,-00000.592802,-00000.199069,-00000.573231,-00000.050814,-00000.142306,-00000.185850
0000000002231,00002.758908,00002.478898,00002.469447,00003.480803,00003.029120,00003.045384,00002.772228,00003.284695,00002.832703,00003.474861,-00000.592601,-00000.198781,-00000.573058,-00000.050951,-00000.142243,-00000.185816
0000000002232,00002.759203,00002.479181,00002.469787,00003.480690,00003.029085,00003.045404,00002.772062,00003.285004,00002.832439,00003.477029,-00000.592086,-00000.198854,-00000.573248,-00000.051239,-00000.142187,-00000.185786
0000000002233,00002.759340,00002.479246,00002.469750,00003.480550,00003.029279,00003.045301,00002.772130,00003.284943,00002.832320,00003.478757,-00000.591552,-00000.198971,-00000.573464,-00000.051356,-00000.142133,-00000.185757
0000000002234,00002.759229,00002.479487,00002.469676,00003.480817,00003.029249,00003.045318,00002.771989,00003.284843,00002.832458,00003.479877,-00000.590750,-00000.199033,-00000.573625,-00000.051601,-00000.142086,-00000.185732
0000000002235,00002.758982,00002.479906,00002.469645,00003.480698,00003.029777,00003.045230,00002.772410,00003.284791,00002.832719,00003.481348,-00000.589933,-00000.199133,-00000.573809,-00000.051701,-00000.142040,-00000.185707
0000000002236,00002.759250,00002.480111,00002.469582,00003.480925,00003.029388,00003.045607,00002.772290,00003.285069,00002.832837,00003.482664,-00000.589250,-00000.199186,-00000.573946,-00000.051910,-00000.141637,-00000.185686
0000000002237,00002.759403,00002.480467,00002.469555,00003.480824,00003.029112,00003.045533,00002.771923,00003.285025,00002.832697,00003.483554,-00000.588554,-00000.198909,-00000.574102,-00000.051632,-00000.141598,-00000.185665
0000000002238,00002.759631,00002.480279,00002.469864,00003.480654,00003.029144,00003.045491,00002.771820,00003.284899,00002.832434,00003.485037,-00000.587973,-00000.198953,-00000.574219,-00000.051446,-00000.141618,-00000.185647
0000000002239,00002.759399,00002.479856,00002.469841,00003.480205,00003.028909,00003.045065,00002.771508,00003.285224,00002.832315,00003.486520,-00000.587381,-00000.199080,-00000.574353,-00000.051573,-00000.141221,-00000.185629
0000000002240,00002.759593,00002.479696,00002.470105,00003.479698,00003.028574,00003.044667,00002.771421,00003.285117,00002.832091,00003.487420,-00000.586887,-00000.199118,-00000.574452,-00000.051778,-00000.141238,-00000.185976
0000000002241,00002.759395,00002.479699,00002.470085,00003.479316,00003.028374,00003.044304,00002.771517,00003.284668,00002.831989,00003.488320,-00000.586382,-00000.199226,-00000.574566,-00000.051885,-00000.140901,-00000.186324
0000000002242,00002.759198,00002.479926,00002.469584,00003.479247,00003.027725,00003.044328,00002.771443,00003.284213,00002.832162,00003.489086,-00000.585961,-00000.198895,-00000.574650,-00000.052060,-00000.140190,-00000.186619
0000000002243,00002.759392,00002.480291,00002.469567,00003.479284,00003.027555,00003.044381,00002.771526,00003.284194,00002.832075,00003.489852,-00000.585532,-00000.198987,-00000.574384,-00000.052151,-00000.139540,-00000.186915
0000000002244,00002.759224,00002.480484,00002.469503,00003.479226,00003.027729,00003.044039,00002.771825,00003.284170,00002.832222,00003.490504,-00000.585174,-00000.198706,-00000.574456,-00000.052300,-00000.138934,-00000.187167
0000000002245,00002.759026,00002.480432,00002.469852,00003.479258,00003.027946,00003.044085,00002.771895,00003.284154,00002.832148,00003.491156,-00000.584808,-00000.198784,-00000.574592,-00000.052378,-00000.138381,-00000.187056
0000000002246,00002.758883,00002.480234,00002.469797,00003.478482,00003.027731,00003.043430,00002.771425,00003.283771,00002.831910,00003.491711,-00000.584503,-00000.198545,-00000.574654,-00000.052504,-00000.137866,-00000.186907
0000000002247,00002.758715,00002.480553,00002.469731,00003.478872,00003.027917,00003.043469,00002.771847,00003.283757,00002.832210,00003.491903,-00000.584192,-00000.198248,-00000.574407,-00000.052208,-00000.137395,-00000.187176
0000000002248,00002.758956,00002.480383,00002.470048,00003.478937,00003.028097,00003.044001,00002.771810,00003.284156,00002.832371,00003.492739,-00000.583932,-00000.198407,-00000.574096,-00000.052316,-00000.137319,-00000.187412
0000000002249,00002.758450,00002.480655,00002.469992,00003.478906,00003.028255,00003.043671,00002.772169,00003.283781,00002.832626,00003.493265,-00000.583667,-00000.198155,-00000.574249,-00000.052426,-00000.137280,-00000.187641
0000000002250,00002.758655,00002.480511,00002.469898,00003.479325,00003.028045,00003.043761,00002.772137,00003.284121,00002.832400,00003.493614,-00000.583446,-00000.197928,-00000.573984,-00000.052518,-00000.136853,-00000.187842
0000000002251,00002.758588,00002.480742,00002.469850,00003.479299,00003.028179,00003.043843,00002.772443,00003.284165,00002.832617,00003.494062,-00000.583221,-00000.198076,-00000.574114,-00000.052612,-00000.136458,-00000.187673
0000000002252,00002.758762,00002.480619,00002.470133,00003.479292,00003.028001,00003.043919,00002.772416,00003.284092,00002.832425,00003.494721,-00000.583032,-00000.198245,-00000.573889,-00000.052690,-00000.136094,-00000.187845
0000000002253,00002.759067,00002.480816,00002.470456,00003.479633,00003.027752,00003.044352,00002.772314,00003.284492,00002.832610,00003.494740,-00000.583203,-00000.198371,-00000.573637,-00000.052407,-00000.135394,-00000.187702
0000000002254,00002.758853,00002.480712,00002.470697,00003.479264,00003.027600,00003.044054,00002.771928,00003.284430,00002.832446,00003.494938,-00000.583043,-00000.198515,-00000.573445,-00000.052474,-00000.134722,-00000.187485
0000000002255,00002.758750,00002.480516,00002.470608,00003.478828,00003.027389,00003.043334,00002.771841,00003.284045,00002.831878,00003.495317,-00000.582826,-00000.198622,-00000.573231,-00000.052233,-00000.134489,-00000.187363
0000000002256,00002.758205,00002.480790,00002.470088,00003.478878,00003.027259,00003.043080,00002.771875,00003.283629,00002.832101,00003.495123,-00000.582689,-00000.198745,-00000.573068,-00000.051927,-00000.133917,-00000.187178
0000000002257,00002.758117,00002.480987,00002.470012,00003.478869,00003.027442,00003.042830,00002.772164,00003.283664,00002.832343,00003.495446,-00000.582504,-00000.198836,-00000.572885,-00000.051722,-00000.133356,-00000.187074
0000000002258,00002.758379,00002.480857,00002.470295,00003.479274,00003.027332,00003.042977,00002.772193,00003.283672,00002.832170,00003.495644,-00000.582751,-00000.198940,-00000.572746,-00000.051461,-00000.132869,-00000.186917
0000000002259,00002.758304,00002.481025,00002.470231,00003.479630,00003.027125,00003.043127,00002.772076,00003.283702,00002.832376,00003.495918,-00000.582956,-00000.199018,-00000.572228,-00000.051286,-00000.132028,-00000.186828
0000000002260,00002.758527,00002.481277,00002.470471,00003.479974,00003.027031,00003.043252,00002.772100,00003.283710,00002.832229,00003.495724,-00000.583166,-00000.199107,-00000.572109,-00000.051065,-00000.131613,-00000.186695
0000000002261,00002.758826,00002.481057,00002.470780,00003.479914,00003.027217,00003.043380,00002.772001,00003.283735,00002.832042,00003.495958,-00000.583341,-00000.199173,-00000.571668,-00000.050916,-00000.131261,-00000.186619
0000000002262,00002.758653,00002.481634,00002.470622,00003.480571,00003.027500,00003.043486,00002.772385,00003.283741,00002.832279,00003.496155,-00000.583520,-00000.199249,-00000.571205,-00000.050727,-00000.131271,-00000.186505
0000000002263,00002.758544,00002.481810,00002.470521,00003.480520,00003.027296,00003.043595,00002.772300,00003.283400,00002.832482,00003.495991,-00000.583668,-00000.199305,-00000.571192,-00000.050601,-00000.131333,-00000.186441
0000000002264,00002.758760,00002.481939,00002.471112,00003.480352,00003.027537,00003.043685,00002.772264,00003.283406,00002.832322,00003.496159,-00000.584183,-00000.199369,-00000.571160,-00000.050440,-00000.130979,-00000.186344
0000000002265,00002.758668,00002.481725,00002.471390,00003.480309,00003.027001,00003.043778,00002.771829,00003.283478,00002.832132,00003.496019,-00000.584673,-00000.199417,-00000.571149,-00000.050332,-00000.130669,-00000.186290
0000000002266,00002.758851,00002.481835,00002.471530,00003.480892,00003.027206,00003.044218,00002.771798,00003.283845,00002.832358,00003.496162,-00000.584748,-00000.199472,-00000.571122,-00000.050558,-00000.130730,-00000.186207
0000000002267,00002.758773,00002.482378,00002.471403,00003.481218,00003.027112,00003.044296,00002.771791,00003.283544,00002.832560,00003.496044,-00000.584802,-00000.199513,-00000.570750,-00000.050466,-00000.130467,-00000.186523
0000000002268,00002.758566,00002.482472,00002.471160,00003.481352,00003.026923,00003.044308,00002.771765,00003.283131,00002.832752,00003.495803,-00000.585229,-00000.199560,-00000.570727,-00000.050659,-00000.130519,-00000.186816
0000000002269,00002.758499,00002.482935,00002.471415,00003.481629,00003.027206,00003.044012,00002.772121,00003.282875,00002.832923,00003.496064,-00000.585638,-00000.199595,-00000.570410,-00000.050581,-00000.130294,-00000.186722
0000000002270,00002.758323,00002.483014,00002.471571,00003.481743,00003.027409,00003.043660,00002.772462,00003.282523,00002.833087,00003.496222,-00000.585639,-00000.199634,-00000.570028,-00000.050382,-00000.129976,-00000.186971
0000000002271,00002.758629,00002.482683,00002.471787,00003.481617,00003.027287,00003.043771,00002.772040,00003.282668,00002.832870,00003.496082,-00000.585987,-00000.199664,-00000.570121,-00000.050678,-00000.130148,-00000.187255
0000000002272,00002.758117,00002.482751,00002.471557,00003.481714,00003.027096,00003.043470,00002.771967,00003.282369,00002.833010,00003.495853,-00000.585988,-00000.199698,-00000.570158,-00000.050871,-00000.130239,-00000.187104
0000000002273,00002.757652,00002.482468,00002.471379,00003.481243,00003.026992,00003.043202,00002.771970,00003.282129,00002.832825,00003.496097,-00000.586284,-00000.199723,-00000.570238,-00000.050761,-00000.130386,-00000.186982
0000000002274,00002.757578,00002.482163,00002.471546,00003.480963,00003.026830,00003.043309,00002.771545,00003.282237,00002.832581,00003.496265,-00000.586647,-00000.199752,-00000.570269,-00000.050563,-00000.130463,-00000.186854
0000000002275,00002.757908,00002.481923,00002.471757,00003.480925,00003.027105,00003.043443,00002.771548,00003.282396,00002.832424,00003.496472,-00000.586899,-00000.199773,-00000.570337,-00000.050469,-00000.130588,-00000.186750
0000000002276,00002.757482,00002.482026,00002.471536,00003.480686,00003.026967,00003.043172,00002.771549,00003.282125,00002.832216,00003.495890,-00000.587209,-00000.199798,-00000.570364,-00000.050663,-00000.130292,-00000.186641
0000000002277,00002.757400,00002.482184,00002.471716,00003.480291,00003.027200,00003.043286,00002.771915,00003.282260,00002.832445,00003.496429,-00000.587423,-00000.199816,-00000.570421,-00000.050583,-00000.130035,-00000.186553
0000000002278,00002.757401,00002.482635,00002.471891,00003.480814,00003.027446,00003.043418,00002.772278,00003.282392,00002.832631,00003.496296,-00000.587687,-00000.199837,-00000.570444,-00000.050385,-00000.130145,-00000.186460
0000000002279,00002.757331,00002.483132,00002.472044,00003.481566,00003.027645,00003.043515,00002.772589,00003.282507,00002.832826,00003.496393,-00000.587506,-00000.199852,-00000.570130,-00000.050317,-00000.129927,-00000.186385
0000000002280,00002.757694,00002.483153,00002.472193,00003.481285,00003.027853,00003.043264,00002.772536,00003.282620,00002.832621,00003.496642,-00000.587368,-00000.199870,-00000.569787,-00000.050149,-00000.129658,-00000.186305
0000000002281,00002.757272,00002.482851,00002.471960,00003.480837,00003.027660,00003.042985,00002.772438,00003.282355,00002.832425,00003.496724,-00000.587577,-00000.199883,-00000.569520,-00000.050091,-00000.129835,-00000.186241
0000000002282,00002.756855,00002.482869,00002.471724,00003.480598,00003.027475,00003.042771,00002.772393,00003.281725,00002.832250,00003.496574,-00000.587822,-00000.199898,-00000.569591,-00000.050310,-00000.129969,-00000.186174
0000000002283,00002.757221,00002.482974,00002.471889,00003.480579,00003.027310,00003.042896,00002.771947,00003.281863,00002.831720,00003.494467,-00000.587638,-00000.199910,-00000.569726,-00000.050624,-00000.129756,-00000.186482
0000000002284,00002.757230,00002.482627,00002.472051,00003.480376,00003.027515,00003.042714,00002.771908,00003.281689,00002.831572,00003.492162,-00000.587483,-00000.199923,-00000.569786,-00000.050448,-00000.129145,-00000.186788
0000000002285,00002.756816,00002.482716,00002.471828,00003.479997,00003.027375,00003.042457,00002.772254,00003.281443,00002.831483,00003.489643,-00000.587326,-00000.200295,-00000.569901,-00000.050714,-00000.128964,-00000.186688
0000000002286,00002.756823,00002.482420,00002.471966,00003.480187,00003.027187,00003.043028,00002.772221,00003.282021,00002.831720,00003.487681,-00000.587195,-00000.200306,-00000.569952,-00000.050565,-00000.129169,-00000.186585
0000000002287,00002.756471,00002.482134,00002.471777,00003.479864,00003.027068,00003.042809,00002.771790,00003.281812,00002.831281,00003.485899,-00000.587061,-00000.200260,-00000.570050,-00000.050429,-00000.129015,-00000.186862
0000000002288,00002.756839,00002.481882,00002.471894,00003.480026,00003.026908,00003.042932,00002.771762,00003.281941,00002.831120,00003.484591,-00000.586949,-00000.200269,-00000.570094,-00000.050664,-00000.128827,-00000.187137
0000000002289,00002.757265,00002.482001,00002.472096,00003.480114,00003.027169,00003.042746,00002.771757,00003.281763,00002.831110,00003.483800,-00000.586835,-00000.200593,-00000.570178,-00000.050549,-00000.129058,-00000.187374
0000000002290,00002.757216,00002.482512,00002.472196,00003.480614,00003.027033,00003.043214,00002.772096,00003.281873,00002.831335,00003.482687,-00000.586740,-00000.200601,-00000.570215,-00000.050386,-00000.128898,-00000.187608
0000000002291,00002.757579,00002.482614,00002.472004,00003.481415,00003.026892,00003.043418,00002.772093,00003.281722,00002.831326,00003.481288,-00000.586281,-00000.200877,-00000.570286,-00000.050651,-00000.128733,-00000.187809
0000000002292,00002.757174,00002.482686,00002.471727,00003.481478,00003.026413,00003.043091,00002.771656,00003.281452,00002.831155,00003.480703,-00000.585837,-00000.201246,-00000.570317,-00000.050875,-00000.128959,-00000.187646
0000000002293,00002.756757,00002.482772,00002.471564,00003.481797,00003.026294,00003.042902,00002.771652,00003.281323,00002.831148,00003.480600,-00000.585445,-00000.201481,-00000.570378,-00000.051101,-00000.128818,-00000.187454
0000000002294,00002.756413,00002.482834,00002.471327,00003.481851,00003.026249,00003.042623,00002.771643,00003.281094,00002.831002,00003.480465,-00000.585068,-00000.201796,-00000.570405,-00000.051292,-00000.129011,-00000.187678
0000000002295,00002.757146,00002.482907,00002.471914,00003.482485,00003.026147,00003.042825,00002.771641,00003.281347,00002.830996,00003.480015,-00000.584734,-00000.201995,-00000.570819,-00000.051483,-00000.129254,-00000.187878
0000000002296,00002.757579,00002.482960,00002.472439,00003.482531,00003.026472,00003.042951,00002.771633,00003.281515,00002.830872,00003.478449,-00000.584775,-00000.201900,-00000.570842,-00000.051646,-00000.129418,-00000.188068
0000000002297,00002.757477,00002.483022,00002.472576,00003.482345,00003.026385,00003.042760,00002.771630,00003.281367,00002.830867,00003.475163,-00000.584855,-00000.201708,-00000.570832,-00000.051809,-00000.129625,-00000.188238
0000000002298,00002.757120,00002.482704,00002.472296,00003.481658,00003.026299,00003.042504,00002.771624,00003.281510,00002.830761,00003.471653,-00000.585252,-00000.201627,-00000.570488,-00000.051948,-00000.129764,-00000.188037
0000000002299,00002.757034,00002.482394,00002.472413,00003.481863,00003.026225,00003.042705,00002.771622,00003.282110,00002.830757,00003.468856,-00000.586045,-00000.201100,-00000.570117,-00000.051724,-00000.130303,-00000.187819
0000000002300,00002.757092,00002.482486,00002.472538,00003.481641,00003.026514,00003.042849,00002.771979,00003.282232,00002.831030,00003.467682,-00000.586747,-00000.200306,-00000.569825,-00000.051479,-00000.130422,-00000.187648
0000000002301,00002.756656,00002.482223,00002.472274,00003.481090,00003.026451,00003.042294,00002.771977,00003.281654,00002.831026,00003.467478,-00000.587785,-00000.199132,-00000.569509,-00000.050926,-00000.130155,-00000.187463
0000000002302,00002.756706,00002.482301,00002.472381,00003.481627,00003.026335,00003.042418,00002.771918,00003.281758,00002.831258,00003.469381,-00000.589108,-00000.198092,-00000.568897,-00000.050354,-00000.130256,-00000.187317
0000000002303,00002.756697,00002.482077,00002.472156,00003.481883,00003.025919,00003.042308,00002.771917,00003.281629,00002.831255,00003.471383,-00000.590354,-00000.197456,-00000.568991,-00000.050246,-00000.130392,-00000.187522
0000000002304,00002.757103,00002.482143,00002.472247,00003.482340,00003.025819,00003.042776,00002.771867,00003.282080,00002.831453,00003.473366,-00000.591480,-00000.196934,-00000.569196,-00000.050123,-00000.130841,-00000.187761
0000000002305,00002.757095,00002.481952,00002.472419,00003.482195,00003.025828,00003.042682,00002.771503,00003.282333,00002.831087,00003.475434,-00000.592178,-00000.196392,-00000.569275,-00000.050030,-00000.130956,-00000.187210
0000000002306,00002.757078,00002.482009,00002.472496,00003.482222,00003.025380,00003.042718,00002.771098,00003.282354,00002.830893,00003.476759,-00000.592774,-00000.196311,-00000.569450,-00000.050288,-00000.131701,-00000.187051
0000000002307,00002.757071,00002.481847,00002.472279,00003.482461,00003.025025,00003.043001,00002.771151,00003.282206,00002.830944,00003.478156,-00000.593368,-00000.196212,-00000.569518,-00000.050572,-00000.132162,-00000.186944
0000000002308,00002.756693,00002.481895,00002.472345,00003.482121,00003.025007,00003.042306,00002.771168,00003.281861,00002.830779,00003.479284,-00000.593513,-00000.195780,-00000.569666,-00000.050429,-00000.132434,-00000.186808
0000000002309,00002.756325,00002.482119,00002.472161,00003.481962,00003.025067,00003.042184,00002.771213,00003.281736,00002.831186,00003.480474,-00000.593293,-00000.195333,-00000.569724,-00000.050308,-00000.132463,-00000.186718
0000000002310,00002.756366,00002.481797,00002.471854,00003.481309,00003.025052,00003.041955,00002.771228,00003.281442,00002.831045,00003.481797,-00000.593053,-00000.194965,-00000.569850,-00000.050186,-00000.132331,-00000.186602
0000000002311,00002.756053,00002.481989,00002.471697,00003.481537,00003.025103,00003.041851,00002.771629,00003.281336,00002.831391,00003.483173,-00000.592866,-00000.194585,-00000.570262,-00000.050083,-00000.132357,-00000.186525
0000000002312,00002.756451,00002.482077,00002.471798,00003.482070,00003.025090,00003.042019,00002.771642,00003.281448,00002.831271,00003.483936,-00000.592662,-00000.194272,-00000.570370,-00000.049979,-00000.132245,-00000.186427
0000000002313,00002.756547,00002.482240,00002.472028,00003.481901,00003.025496,00003.041931,00002.771984,00003.281720,00002.831203,00003.485107,-00000.592140,-00000.193948,-00000.570358,-00000.049892,-00000.132266,-00000.185998
0000000002314,00002.756523,00002.481953,00002.472114,00003.481266,00003.025485,00003.041348,00002.771995,00003.281454,00002.831101,00003.486120,-00000.591966,-00000.194044,-00000.570812,-00000.050166,-00000.132533,-00000.185552
0000000002315,00002.756604,00002.482091,00002.471946,00003.481485,00003.025105,00003.041636,00002.771923,00003.281322,00002.831043,00003.486754,-00000.591885,-00000.194131,-00000.571165,-00000.050454,-00000.132915,-00000.185550
0000000002316,00002.756584,00002.482210,00002.472020,00003.481307,00003.025096,00003.041140,00002.771932,00003.281095,00002.830956,00003.487253,-00000.592100,-00000.194213,-00000.571552,-00000.050688,-00000.133142,-00000.185532
0000000002317,00002.756291,00002.482328,00002.471877,00003.481131,00003.024773,00003.041022,00002.771870,00003.280621,00002.830907,00003.487430,-00000.592393,-00000.194287,-00000.571489,-00000.050933,-00000.133104,-00000.185531
0000000002318,00002.756636,00002.482428,00002.471940,00003.481343,00003.024765,00003.041325,00002.771878,00003.281153,00002.831195,00003.488218,-00000.592939,-00000.193994,-00000.571455,-00000.051132,-00000.132935,-00000.185516
0000000002319,00002.757112,00002.482166,00002.472181,00003.481555,00003.024852,00003.041588,00002.771463,00003.281474,00002.831153,00003.489095,-00000.593551,-00000.193695,-00000.571402,-00000.050978,-00000.133265,-00000.185152
0000000002320,00002.757043,00002.481889,00002.472235,00003.481372,00003.025208,00003.041483,00002.771470,00003.281565,00002.831037,00003.490128,-00000.594016,-00000.193445,-00000.571374,-00000.050784,-00000.133847,-00000.184777
0000000002321,00002.757085,00002.482028,00002.472440,00003.481191,00003.025283,00003.041344,00002.771480,00003.281476,00002.831001,00003.490511,-00000.594537,-00000.193190,-00000.571328,-00000.050653,-00000.134490,-00000.184466
0000000002322,00002.757389,00002.481793,00002.472848,00003.481398,00003.025223,00003.041617,00002.771485,00003.281915,00002.830901,00003.491028,-00000.594933,-00000.192978,-00000.571304,-00000.050851,-00000.134986,-00000.184147
0000000002323,00002.757426,00002.481911,00002.472660,00003.481606,00003.024924,00003.041861,00002.771493,00003.281840,00002.830871,00003.490992,-00000.595377,-00000.192761,-00000.571628,-00000.051103,-00000.135534,-00000.184246
0000000002324,00002.757684,00002.482073,00002.472645,00003.481782,00003.024873,00003.042094,00002.771498,00003.282214,00002.830786,00003.491432,-00000.595713,-00000.192580,-00000.571970,-00000.051271,-00000.135592,-00000.184337
0000000002325,00002.757715,00002.482174,00002.472848,00003.482322,00003.024981,00003.042302,00002.771505,00003.282149,00002.831123,00003.491764,-00000.595728,-00000.192395,-00000.572246,-00000.051485,-00000.135696,-00000.184058
0000000002326,00002.757573,00002.482312,00002.472835,00003.482110,00003.025300,00003.042138,00002.771509,00003.282105,00002.831051,00003.492138,-00000.595652,-00000.192241,-00000.572537,-00000.051629,-00000.135746,-00000.183772
0000000002327,00002.757236,00002.482398,00002.472645,00003.481844,00003.025392,00003.041952,00002.771878,00003.282413,00002.831338,00003.492784,-00000.595665,-00000.192084,-00000.572772,-00000.051811,-00000.136197,-00000.183535
0000000002328,00002.757115,00002.482516,00002.472271,00003.482388,00003.025301,00003.042175,00002.771881,00003.282376,00002.831639,00003.492740,-00000.595237,-00000.191953,-00000.573020,-00000.051933,-00000.136240,-00000.183292
0000000002329,00002.757917,00002.482589,00002.472472,00003.482888,00003.025380,00003.042379,00002.771832,00003.283000,00002.831520,00003.493289,-00000.594886,-00000.191819,-00000.573220,-00000.052088,-00000.136624,-00000.183090
0000000002330,00002.757814,00002.482326,00002.472516,00003.482626,00003.025665,00003.042569,00002.771835,00003.283331,00002.831414,00003.493615,-00000.594159,-00000.192070,-00000.573431,-00000.052192,-00000.137023,-00000.183246
0000000002331,00002.757771,00002.482388,00002.472687,00003.483051,00003.025732,00003.042743,00002.771794,00003.283863,00002.831676,00003.493719,-00000.593859,-00000.192319,-00000.573601,-00000.052687,-00000.137350,-00000.183437
0000000002332,00002.758046,00002.482165,00002.472725,00003.482828,00003.025612,00003.042542,00002.771434,00003.283782,00002.831223,00003.493996,-00000.593603,-00000.192170,-00000.573781,-00000.052775,-00000.137690,-00000.183570
0000000002333,00002.758009,00002.481855,00002.472871,00003.482464,00003.025306,00003.042327,00002.771035,00003.283872,00002.831083,00003.494448,-00000.593348,-00000.192382,-00000.573926,-00000.053196,-00000.137968,-00000.183732
0000000002334,00002.757880,00002.481664,00002.472903,00003.482274,00003.025204,00003.042156,00002.771091,00003.284166,00002.831060,00003.495047,-00000.593130,-00000.192618,-00000.574079,-00000.053635,-00000.138620,-00000.183845
0000000002335,00002.758212,00002.481401,00002.473390,00003.481964,00003.024943,00003.041973,00002.770752,00003.284242,00002.830578,00003.495069,-00000.592913,-00000.192798,-00000.574202,-00000.053993,-00000.138857,-00000.183983
0000000002336,00002.757740,00002.481601,00002.473054,00003.482165,00003.024857,00003.041827,00002.771163,00003.284130,00002.830921,00003.494853,-00000.592728,-00000.192999,-00000.574333,-00000.054366,-00000.139049,-00000.184080
0000000002337,00002.757659,00002.481377,00002.473106,00003.481539,00003.024998,00003.041309,00002.771600,00003.284195,00002.830874,00003.495235,-00000.592180,-00000.193152,-00000.574438,-00000.054671,-00000.139614,-00000.184560
0000000002338,00002.757620,00002.481548,00002.472820,00003.482073,00003.024924,00003.041185,00002.771949,00003.283736,00002.831166,00003.495414,-00000.591659,-00000.193323,-00000.574548,-00000.054989,-00000.140140,-00000.185005
0000000002339,00002.757914,00002.481719,00002.472864,00003.482628,00003.024681,00003.041469,00002.771959,00003.283792,00002.831125,00003.495375,-00000.591193,-00000.193454,-00000.574638,-00000.054886,-00000.140621,-00000.185051
0000000002340,00002.757881,00002.481502,00002.472984,00003.482357,00003.024618,00003.041363,00002.771893,00003.283764,00002.831011,00003.495528,-00000.590750,-00000.193600,-00000.574732,-00000.055156,-00000.141069,-00000.185067
0000000002341,00002.757768,00002.481285,00002.472659,00003.482467,00003.024049,00003.041243,00002.771538,00003.283448,00002.830977,00003.495495,-00000.590353,-00000.193711,-00000.575171,-00000.055431,-00000.141478,-00000.185106
0000000002342,00002.757740,00002.481100,00002.472761,00003.482599,00003.023632,00003.041516,00002.771120,00003.283788,00002.830880,00003.495262,-00000.589976,-00000.193835,-00000.575614,-00000.055662,-00000.141860,-00000.185120
0000000002343,00002.758007,00002.481279,00002.473209,00003.482692,00003.024236,00003.041413,00002.771543,00003.283882,00002.830850,00003.495598,-00000.589638,-00000.193929,-00000.575988,-00000.055896,-00000.141845,-00000.185153
0000000002344,00002.758345,00002.481484,00002.473659,00003.482442,00003.024607,00003.041282,00002.771550,00003.283808,00002.830768,00003.495762,-00000.589317,-00000.194035,-00000.576365,-00000.056092,-00000.142170,-00000.185165
0000000002345,00002.758573,00002.481273,00002.474041,00003.482522,00003.024395,00003.041558,00002.771548,00003.283888,00002.830743,00003.495685,-00000.589029,-00000.194116,-00000.576683,-00000.056291,-00000.142157,-00000.185193
0000000002346,00002.758861,00002.481085,00002.474786,00003.482671,00003.024348,00003.041446,00002.771191,00003.283825,00002.830310,00003.495825,-00000.588756,-00000.194205,-00000.576642,-00000.056458,-00000.142071,-00000.185203
0000000002347,00002.759055,00002.480905,00002.475111,00003.482739,00003.024168,00003.041681,00002.771189,00003.283893,00002.830651,00003.496121,-00000.588511,-00000.194274,-00000.576550,-00000.056628,-00000.142423,-00000.185227
0000000002348,00002.758575,00002.480745,00002.475383,00003.482141,00003.023766,00003.040861,00002.771247,00003.283477,00002.830645,00003.495878,-00000.588278,-00000.194350,-00000.576877,-00000.056770,-00000.143076,-00000.185236
0000000002349,00002.758739,00002.480592,00002.476023,00003.481836,00003.023975,00003.040697,00002.771246,00003.283898,00002.830573,00003.496493,-00000.588070,-00000.194772,-00000.577161,-00000.056914,-00000.143738,-00000.185256
0000000002350,00002.759056,00002.480456,00002.476617,00003.481689,00003.023995,00003.040725,00002.771296,00003.284269,00002.830568,00003.496649,-00000.587871,-00000.195200,-00000.577440,-00000.057398,-00000.144656,-00000.185263
0000000002351,00002.759197,00002.480326,00002.477161,00003.481429,00003.024173,00003.040223,00002.770931,00003.284264,00002.830144,00003.496447,-00000.587331,-00000.195558,-00000.577682,-00000.057884,-00000.145220,-00000.185644
0000000002352,00002.759466,00002.480573,00002.478030,00003.481668,00003.024553,00003.040246,00002.771337,00003.284580,00002.830140,00003.496942,-00000.586800,-00000.195922,-00000.577919,-00000.058295,-00000.145639,-00000.186012
0000000002353,00002.758860,00002.480825,00002.478131,00003.481446,00003.024705,00003.039819,00002.771752,00003.284576,00002.830504,00003.497133,-00000.586340,-00000.196228,-00000.578126,-00000.058709,-00000.145756,-00000.186336
0000000002354,00002.759090,00002.481035,00002.478507,00003.482012,00003.024302,00003.040202,00002.771735,00003.284845,00002.830863,00003.496829,-00000.585887,-00000.196538,-00000.578328,-00000.059059,-00000.145750,-00000.186287
0000000002355,00002.759662,00002.481249,00002.478956,00003.482549,00003.024432,00003.040564,00002.771726,00003.285205,00002.830811,00003.496992,-00000.585859,-00000.196798,-00000.578503,-00000.059049,-00000.146213,-00000.186563
0000000002356,00002.759857,00002.481065,00002.479277,00003.482668,00003.024452,00003.040526,00002.771711,00003.285433,00002.830754,00003.497459,-00000.585473,-00000.197062,-00000.578675,-00000.058984,-00000.146570,-00000.186884
0000000002357,00002.759619,00002.480885,00002.479658,00003.482763,00003.024199,00003.040835,00002.771703,00003.285377,00002.831072,00003.497597,-00000.585086,-00000.196920,-00000.578824,-00000.058975,-00000.146964,-00000.187119
0000000002358,00002.759785,00002.481091,00002.480294,00003.482864,00003.024216,00003.040803,00002.771690,00003.285572,00002.831023,00003.497994,-00000.584758,-00000.197145,-00000.578971,-00000.058920,-00000.146906,-00000.187393
0000000002359,00002.759945,00002.481301,00002.480619,00003.483307,00003.024001,00003.041065,00002.771683,00003.285523,00002.831294,00003.498112,-00000.584429,-00000.197387,-00000.579098,-00000.058913,-00000.146878,-00000.187592
0000000002360,00002.759724,00002.481476,00002.480798,00003.483756,00003.024016,00003.041038,00002.771672,00003.285326,00002.831616,00003.498088,-00000.584149,-00000.197578,-00000.579223,-00000.058866,-00000.146465,-00000.187825
0000000002361,00002.759860,00002.481655,00002.481437,00003.484133,00003.023833,00003.041262,00002.771667,00003.285648,00002.831846,00003.498188,-00000.583869,-00000.197785,-00000.579331,-00000.058859,-00000.146079,-00000.187995
0000000002362,00002.760035,00002.481804,00002.482315,00003.484152,00003.024208,00003.041239,00002.771658,00003.285843,00002.831757,00003.498167,-00000.583631,-00000.197948,-00000.579437,-00000.058820,-00000.145728,-00000.188193
0000000002363,00002.759788,00002.481956,00002.482496,00003.483748,00003.024415,00003.040703,00002.772016,00003.285754,00002.831590,00003.498615,-00000.583029,-00000.198123,-00000.579529,-00000.058814,-00000.145399,-00000.188338
0000000002364,00002.759574,00002.482083,00002.482155,00003.483765,00003.024009,00003.040321,00002.772008,00003.285195,00002.831877,00003.498235,-00000.582464,-00000.198262,-00000.579257,-00000.058417,-00000.144737,-00000.188507
0000000002365,00002.759726,00002.482212,00002.482310,00003.484146,00003.024185,00003.040228,00002.771950,00003.285482,00002.832098,00003.498254,-00000.581952,-00000.198411,-00000.578972,-00000.058050,-00000.144095,-00000.188993
0000000002366,00002.759544,00002.481958,00002.482382,00003.483797,00003.024202,00003.039903,00002.771943,00003.285731,00002.831980,00003.498655,-00000.581471,-00000.198529,-00000.578740,-00000.058075,-00000.143531,-00000.189499
0000000002367,00002.759674,00002.482068,00002.482876,00003.483759,00003.024352,00003.039823,00002.771894,00003.286339,00002.832168,00003.499034,-00000.581035,-00000.198656,-00000.578498,-00000.058125,-00000.143347,-00000.189913
0000000002368,00002.759519,00002.482214,00002.482938,00003.484188,00003.024004,00003.039909,00002.771888,00003.286551,00002.832430,00003.499013,-00000.580988,-00000.198757,-00000.578301,-00000.058146,-00000.142868,-00000.190344
0000000002369,00002.759629,00002.482307,00002.483359,00003.484518,00003.024494,00003.039842,00002.772209,00003.286705,00002.832227,00003.499336,-00000.580980,-00000.198865,-00000.578095,-00000.058189,-00000.142711,-00000.190696
0000000002370,00002.759860,00002.482432,00002.483411,00003.484520,00003.024560,00003.039552,00002.771841,00003.286886,00002.832087,00003.499318,-00000.580940,-00000.198951,-00000.577927,-00000.058207,-00000.142302,-00000.190701
0000000002371,00002.759591,00002.482512,00002.483406,00003.484801,00003.024252,00003.039494,00002.771751,00003.287017,00002.832278,00003.499230,-00000.580933,-00000.199043,-00000.577751,-00000.057880,-00000.141806,-00000.191001
0000000002372,00002.759425,00002.482618,00002.483451,00003.485166,00003.024672,00003.039248,00002.772164,00003.286808,00002.832521,00003.499577,-00000.581262,-00000.199116,-00000.577608,-00000.057533,-00000.141096,-00000.191367
0000000002373,00002.758833,00002.482685,00002.483084,00003.485043,00003.024409,00003.038836,00002.772087,00003.286194,00002.832683,00003.499139,-00000.581618,-00000.199194,-00000.577459,-00000.057255,-00000.140673,-00000.191622
0000000002374,00002.759054,00002.482776,00002.483122,00003.485353,00003.024041,00003.038989,00002.772076,00003.286379,00002.832528,00003.499072,-00000.581898,-00000.199256,-00000.577337,-00000.056959,-00000.140431,-00000.191934
0000000002375,00002.759276,00002.482471,00002.483536,00003.485611,00003.024543,00003.039001,00002.772011,00003.286582,00002.832303,00003.499425,-00000.582202,-00000.199323,-00000.577210,-00000.056723,-00000.140434,-00000.192151
0000000002376,00002.759102,00002.482184,00002.483568,00003.485875,00003.024592,00003.039131,00002.772001,00003.287102,00002.832534,00003.499731,-00000.582803,-00000.199376,-00000.577106,-00000.056471,-00000.140591,-00000.192417
0000000002377,00002.758928,00002.481925,00002.483557,00003.485731,00003.025019,00003.038779,00002.772308,00003.286912,00002.832342,00003.499669,-00000.583425,-00000.199433,-00000.576998,-00000.056269,-00000.140594,-00000.192602
0000000002378,00002.759142,00002.481681,00002.483947,00003.485594,00003.025424,00003.038527,00002.772300,00003.286992,00002.832176,00003.499566,-00000.584299,-00000.199478,-00000.576547,-00000.056055,-00000.140727,-00000.192828
0000000002379,00002.758994,00002.481823,00002.484301,00003.485472,00003.025788,00003.038227,00002.772925,00003.286830,00002.832376,00003.499876,-00000.585191,-00000.199526,-00000.576455,-00000.055884,-00000.140729,-00000.192985
0000000002380,00002.759177,00002.481616,00002.484633,00003.485354,00003.026132,00003.038012,00002.773280,00003.286899,00002.832234,00003.500151,-00000.585935,-00000.199564,-00000.576433,-00000.055701,-00000.140480,-00000.193541
0000000002381,00002.759051,00002.481736,00002.484934,00003.485613,00003.026079,00003.037757,00002.773449,00003.286761,00002.832767,00003.500052,-00000.586694,-00000.199606,-00000.576355,-00000.055555,-00000.140119,-00000.194038
0000000002382,00002.759206,00002.481560,00002.485217,00003.485876,00003.026010,00003.037937,00002.773389,00003.286819,00002.833009,00003.500287,-00000.587328,-00000.199638,-00000.575974,-00000.055400,-00000.139907,-00000.194510
0000000002383,00002.759099,00002.481663,00002.485111,00003.486096,00003.025965,00003.037720,00002.773533,00003.286339,00002.833100,00003.499839,-00000.587974,-00000.199673,-00000.575544,-00000.055276,-00000.139963,-00000.194933
0000000002384,00002.758505,00002.481875,00002.484989,00003.485957,00003.025905,00003.037148,00002.773845,00003.286025,00002.833306,00003.499676,-00000.588877,-00000.199701,-00000.575220,-00000.055143,-00000.140145,-00000.194973
0000000002385,00002.758414,00002.481600,00002.484898,00003.485419,00003.025867,00003.036600,00002.773604,00003.285980,00002.833021,00003.499658,-00000.589790,-00000.199731,-00000.575217,-00000.055037,-00000.140192,-00000.194970
0000000002386,00002.758272,00002.481781,00002.485157,00003.485664,00003.026179,00003.036475,00002.773869,00003.285713,00002.833196,00003.499520,-00000.590558,-00000.199755,-00000.574941,-00000.054925,-00000.140347,-00000.195004
0000000002387,00002.758194,00002.481909,00002.485080,00003.485931,00003.026147,00003.036372,00002.774028,00003.285674,00002.833316,00003.499504,-00000.591335,-00000.199780,-00000.574576,-00000.054835,-00000.140388,-00000.195001
0000000002388,00002.758073,00002.481338,00002.484937,00003.485777,00003.025687,00003.036266,00002.773528,00003.285809,00002.833102,00003.499386,-00000.592352,-00000.199800,-00000.574341,-00000.054739,-00000.140520,-00000.195030
0000000002389,00002.758369,00002.480721,00002.484872,00003.486005,00003.025296,00003.036178,00002.773300,00003.286139,00002.832842,00003.499373,-00000.593376,-00000.199822,-00000.574030,-00000.054662,-00000.140554,-00000.195028
0000000002390,00002.758266,00002.480235,00002.485113,00003.485873,00003.024905,00003.036088,00002.773237,00003.286254,00002.832660,00003.499273,-00000.594242,-00000.199839,-00000.573830,-00000.054581,-00000.140666,-00000.195053
0000000002391,00002.758156,00002.480073,00002.485420,00003.486067,00003.024572,00003.036375,00002.773043,00003.286172,00002.832801,00003.498899,-00000.595477,-00000.199857,-00000.573565,-00000.054516,-00000.140333,-00000.195051
0000000002392,00002.758431,00002.480022,00002.485626,00003.486318,00003.024239,00003.036661,00002.772990,00003.286271,00002.832646,00003.498450,-00000.596576,-00000.199872,-00000.573395,-00000.054446,-00000.140429,-00000.195435
0000000002393,00002.758337,00002.479884,00002.485524,00003.486845,00003.023956,00003.036906,00002.772824,00003.286201,00002.832766,00003.498132,-00000.598353,-00000.200250,-00000.572807,-00000.054391,-00000.140507,-00000.195796
0000000002394,00002.758208,00002.479477,00002.485699,00003.487422,00003.024035,00003.036787,00002.773142,00003.285921,00002.832997,00003.497025,-00000.600378,-00000.200625,-00000.572299,-00000.053969,-00000.140952,-00000.196122
0000000002395,00002.758491,00002.478634,00002.485975,00003.487871,00003.024157,00003.036633,00002.773001,00003.286587,00002.832736,00003.494940,-00000.602979,-00000.200948,-00000.571799,-00000.053558,-00000.141381,-00000.196430
0000000002396,00002.758019,00002.478288,00002.485762,00003.489087,00003.023862,00003.036894,00002.772908,00003.286350,00002.832933,00003.491820,-00000.606153,-00000.201630,-00000.571366,-00000.053199,-00000.141760,-00000.196708
0000000002397,00002.756808,00002.477571,00002.485271,00003.489833,00003.023240,00003.036763,00002.772788,00003.285828,00002.832711,00003.486780,-00000.610544,-00000.202993,-00000.570940,-00000.052850,-00000.142126,-00000.197333
0000000002398,00002.756043,00002.476550,00002.485089,00003.490868,00003.022263,00003.036985,00002.772710,00003.285626,00002.832516,00003.481585,-00000.615786,-00000.205024,-00000.570572,-00000.052182,-00000.142810,-00000.197932
0000000002399,00002.755376,00002.475577,00002.485035,00003.491865,00003.021371,00003.036873,00002.772245,00003.285908,00002.831964,00003.477295,-00000.622064,-00000.207636,-00000.569846,-00000.051159,-00000.143485,-00000.198827
0000000002400,00002.753999,00002.474708,00002.484517,00003.492746,00003.020902,00003.036337,00002.772178,00003.285736,00002.831435,00003.473235,-00000.629066,-00000.210091,-00000.569170,-00000.050590,-00000.144430,-00000.199700
0000000002401,00002.752705,00002.473154,00002.484108,00003.493596,00003.020142,00003.035879,00002.771782,00003.285613,00002.830602,00003.469582,-00000.636587,-00000.213040,-00000.568553,-00000.050082,-00000.145367,-00000.200099
0000000002402,00002.751896,00002.471689,00002.483667,00003.494346,00003.019380,00003.035423,00002.771362,00003.285466,00002.826161,00003.466126,-00000.644725,-00000.215855,-00000.567977,-00000.049597,-00000.146535,-00000.200116
0000000002403,00002.750794,00002.470728,00002.482956,00003.495431,00003.018371,00003.035396,00002.771025,00003.284999,00002.822187,00003.462654,-00000.653304,-00000.218365,-00000.567814,-00000.049165,-00000.147333,-00000.199367
0000000002404,00002.749743,00002.469481,00002.482218,00003.495707,00003.017722,00003.034644,00002.771031,00003.284511,00002.818407,00003.459712,-00000.662408,-00000.220763,-00000.567324,-00000.048752,-00000.147964,-00000.198294
0000000002405,00002.748805,00002.468664,00002.481612,00003.496269,00003.017226,00003.034258,00002.771107,00003.283750,00002.815024,00003.457119,-00000.671526,-00000.222899,-00000.566823,-00000.048384,-00000.148643,-00000.196931
0000000002406,00002.747547,00002.467602,00002.480621,00003.496866,00003.016673,00003.033981,00002.770748,00003.282972,00002.812168,00003.454614,-00000.681090,-00000.224940,-00000.566405,-00000.047670,-00000.148818,-00000.195654
0000000002407,00002.746749,00002.466906,00002.479743,00003.497707,00003.015888,00003.034016,00002.769725,00003.282688,00002.808925,00003.452044,-00000.691392,-00000.226759,-00000.565978,-00000.046994,-00000.148307,-00000.193768
0000000002408,00002.745315,00002.466002,00002.478537,00003.498216,00003.015055,00003.033780,00002.768694,00003.282025,00002.806131,00003.449549,-00000.702073,-00000.228496,-00000.565623,-00000.046387,-00000.147368,-00000.191956
0000000002409,00002.744272,00002.465047,00002.477789,00003.498206,00003.014749,00003.033447,00002.767823,00003.282146,00002.803008,00003.447723,-00000.712294,-00000.230045,-00000.565623,-00000.045811,-00000.146933,-00000.189625
0000000002410,00002.743415,00002.464277,00002.476762,00003.498639,00003.014403,00003.033609,00002.766945,00003.281945,00002.800267,00003.445599,-00000.721750,-00000.231161,-00000.565320,-00000.045294,-00000.146496,-00000.187357
0000000002411,00002.742890,00002.463101,00002.476125,00003.498631,00003.014505,00003.033687,00002.766204,00003.281684,00002.797245,00003.444408,-00000.730814,-00000.232117,-00000.565320,-00000.044804,-00000.146126,-00000.185009
0000000002412,00002.742160,00002.462446,00002.475614,00003.499362,00003.014573,00003.034188,00002.765457,00003.281513,00002.794912,00003.442963,-00000.739952,-00000.233067,-00000.565062,-00000.044000,-00000.146117,-00000.182715
0000000002413,00002.741713,00002.461808,00002.475072,00003.500080,00003.014660,00003.034618,00002.764825,00003.281654,00002.791977,00003.441949,-00000.749482,-00000.234243,-00000.564699,-00000.043220,-00000.146165,-00000.180717
0000000002414,00002.740729,00002.461250,00002.473911,00003.499978,00003.015081,00003.034319,00002.764189,00003.281146,00002.788539,00003.440718,-00000.759439,-00000.235777,-00000.564480,-00000.042537,-00000.145794,-00000.178764
0000000002415,00002.739623,00002.460344,00002.472361,00003.500226,00003.014792,00003.033959,00002.763289,00003.280541,00002.784952,00003.439130,-00000.769728,-00000.237504,-00000.564171,-00000.041873,-00000.145109,-00000.177426
0000000002416,00002.738785,00002.459506,00002.471373,00003.500502,00003.015151,00003.033705,00002.762385,00003.280108,00002.781300,00003.438082,-00000.780018,-00000.238811,-00000.563984,-00000.041290,-00000.144431,-00000.175401
0000000002417,00002.737844,00002.458735,00002.470417,00003.500713,00003.015631,00003.033761,00002.761618,00003.279592,00002.777520,00003.437092,-00000.790228,-00000.239918,-00000.563721,-00000.040725,-00000.143485,-00000.173173
0000000002418,00002.737130,00002.458022,00002.469938,00003.501311,00003.016298,00003.034270,00002.760849,00003.278861,00002.774048,00003.436201,-00000.800439,-00000.240667,-00000.563925,-00000.039867,-00000.142545,-00000.171086
0000000002419,00002.736329,00002.457365,00002.469124,00003.501491,00003.016707,00003.034318,00002.760196,00003.278060,00002.770831,00003.435358,-00000.810220,-00000.241247,-00000.563701,-00000.038660,-00000.141740,-00000.168827
0000000002420,00002.735359,00002.456758,00002.468353,00003.501999,00003.016912,00003.034388,00002.759541,00003.277437,00002.767876,00003.434236,-00000.820364,-00000.241885,-00000.563512,-00000.037567,-00000.140577,-00000.166688
0000000002421,00002.733951,00002.455836,00002.467298,00003.502153,00003.017260,00003.034430,00002.758985,00003.276755,00002.764411,00003.433156,-00000.829778,-00000.242741,-00000.563321,-00000.036539,-00000.139891,-00000.164765
0000000002422,00002.732762,00002.454957,00002.466642,00003.502223,00003.018161,00003.034489,00002.758790,00003.276225,00002.761169,00003.432926,-00000.839139,-00000.244010,-00000.563160,-00000.035971,-00000.138901,-00000.163306
0000000002423,00002.731201,00002.454172,00002.465743,00003.502353,00003.018820,00003.034162,00002.758680,00003.274918,00002.755681,00003.432007,-00000.848605,-00000.245464,-00000.562997,-00000.035459,-00000.137955,-00000.162032
0000000002424,00002.729826,00002.452698,00002.464459,00003.502413,00003.018861,00003.034212,00002.757789,00003.274104,00002.749656,00003.431086,-00000.858751,-00000.247270,-00000.562860,-00000.034613,-00000.137112,-00000.160427
0000000002425,00002.728134,00002.451667,00002.463331,00003.501798,00003.019059,00003.033933,00002.757332,00003.272992,00002.743895,00003.429941,-00000.868986,-00000.248871,-00000.562722,-00000.033815,-00000.135943,-00000.159342
0000000002426,00002.726964,00002.450412,00002.462238,00003.501124,00003.019094,00003.033614,00002.756210,00003.271936,00002.738040,00003.428794,-00000.878711,-00000.250408,-00000.562605,-00000.032731,-00000.134137,-00000.157977
0000000002427,00002.725524,00002.448809,00002.460915,00003.499875,00003.019625,00003.033014,00002.755459,00003.270627,00002.732773,00003.427819,-00000.888513,-00000.251771,-00000.562488,-00000.032051,-00000.132417,-00000.156690
0000000002428,00002.724165,00002.447740,00002.459622,00003.498938,00003.020018,00003.032379,00002.755230,00003.269365,00002.728152,00003.427205,-00000.898243,-00000.253442,-00000.562388,-00000.031492,-00000.130517,-00000.155165
0000000002429,00002.722576,00002.446738,00002.458133,00003.497875,00003.020108,00003.031868,00002.754590,00003.268250,00002.723305,00003.426375,-00000.908038,-00000.255328,-00000.562288,-00000.031276,-00000.128327,-00000.153707
0000000002430,00002.721419,00002.445466,00002.456669,00003.497440,00003.020079,00003.031690,00002.753669,00003.267176,00002.718646,00003.425127,-00000.917410,-00000.257477,-00000.562204,-00000.031163,-00000.126346,-00000.152408
0000000002431,00002.719703,00002.444250,00002.455401,00003.496897,00003.020518,00003.031255,00002.753125,00003.265865,00002.714520,00003.424420,-00000.927200,-00000.259445,-00000.562118,-00000.031342,-00000.124482,-00000.150804
0000000002432,00002.717993,00002.443530,00002.454155,00003.495801,00003.021219,00003.030741,00002.752703,00003.264588,00002.710553,00003.423721,-00000.938081,-00000.261274,-00000.561684,-00000.031245,-00000.122433,-00000.149336
0000000002433,00002.716532,00002.442495,00002.453076,00003.494977,00003.021956,00003.030734,00002.752240,00003.263471,00002.707041,00003.423119,-00000.949317,-00000.263312,-00000.561611,-00000.030672,-00000.120483,-00000.148333
0000000002434,00002.715076,00002.441519,00002.452015,00003.493681,00003.022553,00003.030296,00002.751156,00003.262384,00002.703301,00003.422524,-00000.960757,-00000.265595,-00000.561241,-00000.030227,-00000.118376,-00000.147083
0000000002435,00002.713833,00002.440637,00002.451097,00003.493342,00003.022454,00003.030290,00002.749673,00003.261070,00002.699585,00003.421649,-00000.972499,-00000.268781,-00000.560816,-00000.029739,-00000.116353,-00000.146230
0000000002436,00002.711142,00002.439807,00002.449831,00003.492602,00003.022962,00003.029917,00002.748750,00003.259419,00002.696039,00003.421142,-00000.985140,-00000.271450,-00000.560501,-00000.029360,-00000.114560,-00000.145528
0000000002437,00002.708996,00002.438694,00002.449049,00003.491588,00003.023967,00003.029549,00002.747850,00003.257938,00002.692513,00003.420760,-00000.998401,-00000.273437,-00000.560140,-00000.028582,-00000.112838,-00000.144802
0000000002438,00002.707431,00002.437623,00002.448334,00003.490595,00003.024762,00003.029594,00002.746702,00003.256533,00002.689131,00003.419965,-00001.010976,-00000.274983,-00000.559871,-00000.027897,-00000.111311,-00000.143479
0000000002439,00002.705603,00002.436676,00002.447305,00003.489369,00003.025980,00003.029281,00002.745573,00003.254909,00002.686129,00003.419640,-00001.023354,-00000.276312,-00000.559564,-00000.027234,-00000.109845,-00000.142498
0000000002440,00002.704271,00002.435765,00002.446334,00003.488523,00003.026657,00003.029683,00002.744232,00003.253712,00002.683250,00003.418601,-00001.035873,-00000.277991,-00000.559335,-00000.026288,-00000.107457,-00000.141372
0000000002441,00002.702715,00002.434959,00002.445458,00003.487842,00003.027332,00003.030141,00002.742546,00003.252693,00002.680332,00003.417599,-00001.048587,-00000.279848,-00000.559073,-00000.025361,-00000.104758,-00000.139811
0000000002442,00002.699767,00002.433820,00002.443906,00003.486760,00003.027908,00003.029758,00002.741042,00003.250949,00002.677519,00003.416714,-00001.061784,-00000.282366,-00000.559242,-00000.024556,-00000.102362,-00000.138489
0000000002443,00002.696991,00002.432771,00002.442435,00003.485817,00003.028845,00003.029785,00002.739969,00003.249355,00002.674672,00003.415861,-00001.076235,-00000.285035,-00000.559019,-00000.023767,-00000.099701,-00000.136798
0000000002444,00002.694481,00002.431802,00002.441113,00003.484533,00003.029698,00003.030184,00002.738326,00003.247508,00002.671914,00003.415108,-00001.091098,-00000.287541,-00000.558436,-00000.023444,-00000.098024,-00000.135673
0000000002445,00002.692118,00002.431271,00002.439861,00003.483005,00003.030858,00003.030571,00002.737050,00003.245789,00002.669490,00003.414018,-00001.105940,-00000.289813,-00000.557884,-00000.022772,-00000.097210,-00000.134596
0000000002446,00002.689619,00002.430083,00002.438373,00003.480098,00003.032673,00003.030548,00002.736014,00003.244216,00002.666779,00003.413740,-00001.120769,-00000.292310,-00000.557388,-00000.022134,-00000.096509,-00000.134001
0000000002447,00002.687245,00002.429269,00002.436582,00003.478072,00003.034386,00003.030514,00002.734927,00003.242027,00002.664716,00003.413176,-00001.135218,-00000.294970,-00000.557281,-00000.021200,-00000.095816,-00000.133446
0000000002448,00002.684754,00002.428621,00002.434952,00003.476322,00003.035569,00003.030131,00002.733683,00003.239962,00002.662408,00003.412213,-00001.148205,-00000.298183,-00000.557221,-00000.020294,-00000.094130,-00000.133303
0000000002449,00002.682733,00002.427927,00002.433790,00003.474597,00003.036664,00003.030102,00002.732758,00003.238098,00002.660652,00003.411733,-00001.160505,-00000.300810,-00000.557492,-00000.019861,-00000.092452,-00000.133194
0000000002450,00002.680613,00002.427375,00002.432765,00003.472745,00003.038034,00003.030140,00002.732061,00003.236341,00002.659050,00003.411276,-00001.172287,-00000.302820,-00000.557442,-00000.019453,-00000.091017,-00000.133072
0000000002451,00002.678892,00002.427148,00002.432139,00003.470551,00003.039329,00003.030115,00002.731274,00003.234754,00002.657192,00003.410867,-00001.183846,-00000.304331,-00000.556947,-00000.019085,-00000.090676,-00000.132979
0000000002452,00002.677450,00002.426315,00002.431267,00003.468612,00003.039769,00003.030510,00002.730318,00003.233258,00002.655103,00003.410116,-00001.195327,-00000.305317,-00000.556542,-00000.018374,-00000.090543,-00000.133237
0000000002453,00002.675985,00002.425033,00002.430370,00003.466744,00003.039784,00003.030851,00002.729285,00003.231907,00002.653159,00003.409404,-00001.206256,-00000.306240,-00000.555758,-00000.017698,-00000.089891,-00000.133884
0000000002454,00002.674395,00002.423962,00002.429628,00003.464730,00003.039796,00003.030824,00002.728108,00003.230634,00002.651380,00003.408765,-00001.216755,-00000.306354,-00000.555050,-00000.016731,-00000.089051,-00000.134467
0000000002455,00002.672059,00002.423233,00002.428865,00003.462777,00003.040171,00003.030390,00002.727591,00003.229121,00002.650087,00003.408522,-00001.226422,-00000.304963,-00000.554382,-00000.016155,-00000.087770,-00000.135017
0000000002456,00002.670343,00002.422321,00002.428233,00003.461063,00003.040181,00003.030367,00002.726953,00003.228037,00002.648936,00003.408340,-00001.234634,-00000.303246,-00000.553417,-00000.015694,-00000.086693,-00000.135151
0000000002457,00002.668355,00002.421338,00002.427220,00003.459037,00003.040137,00003.029634,00002.726150,00003.226749,00002.647473,00003.408134,-00001.241775,-00000.301699,-00000.552848,-00000.015204,-00000.086328,-00000.135620
0000000002458,00002.666530,00002.420561,00002.426682,00003.457941,00003.040509,00003.029252,00002.725969,00003.225463,00002.646493,00003.407979,-00001.248404,-00000.300237,-00000.552026,-00000.014811,-00000.086137,-00000.136459
0000000002459,00002.664475,00002.420087,00002.426183,00003.456579,00003.040835,00003.028991,00002.725648,00003.224367,00002.645247,00003.407803,-00001.255571,-00000.299283,-00000.551180,-00000.014394,-00000.085826,-00000.137220
0000000002460,00002.662922,00002.419063,00002.426088,00003.455283,00003.041514,00003.029028,00002.725131,00003.223635,00002.643325,00003.407672,-00001.263390,-00000.298401,-00000.550117,-00000.013697,-00000.085663,-00000.137572
0000000002461,00002.661172,00002.417934,00002.425663,00003.453761,00003.042154,00003.028806,00002.724859,00003.222702,00002.641902,00003.407522,-00001.270943,-00000.296864,-00000.549034,-00000.012979,-00000.085036,-00000.137495
0000000002462,00002.659487,00002.417425,00002.424857,00003.452295,00003.042369,00003.028475,00002.724419,00003.221716,00002.640628,00003.407047,-00001.277600,-00000.295750,-00000.548129,-00000.012386,-00000.084172,-00000.137069
0000000002463,00002.657998,00002.416464,00002.424495,00003.450637,00003.042914,00003.028286,00002.724186,00003.221285,00002.639416,00003.406920,-00001.282941,-00000.294804,-00000.547570,-00000.011775,-00000.084001,-00000.137003
0000000002464,00002.656926,00002.415668,00002.424171,00003.449751,00003.043097,00003.028367,00002.723812,00003.220808,00002.638332,00003.406878,-00001.288608,-00000.294582,-00000.546800,-00000.011270,-00000.083265,-00000.137003
0000000002465,00002.655658,00002.414487,00002.423500,00003.448702,00003.042835,00003.028569,00002.723251,00003.220078,00002.636937,00003.406407,-00001.295695,-00000.294502,-00000.546323,-00000.010750,-00000.082031,-00000.136947
0000000002466,00002.654384,00002.413084,00002.422862,00003.446860,00003.042991,00003.028275,00002.722932,00003.219310,00002.635288,00003.406372,-00001.302696,-00000.294313,-00000.546031,-00000.010682,-00000.081042,-00000.136222
0000000002467,00002.653304,00002.412078,00002.422291,00003.445604,00003.043131,00003.027721,00002.722455,00003.218688,00002.634102,00003.406333,-00001.309454,-00000.294245,-00000.545625,-00000.010239,-00000.080354,-00000.135811
0000000002468,00002.652581,00002.410884,00002.422110,00003.444399,00003.042901,00003.027834,00002.721821,00003.218397,00002.632698,00003.406303,-00001.315051,-00000.294446,-00000.545376,-00000.010182,-00000.079874,-00000.135193
0000000002469,00002.652025,00002.409302,00002.421624,00003.443693,00003.042658,00003.028088,00002.721415,00003.217867,00002.631688,00003.405908,-00001.320079,-00000.295114,-00000.545031,-00000.009805,-00000.079652,-00000.134844
0000000002470,00002.651047,00002.408285,00002.421107,00003.442667,00003.042825,00003.027821,00002.721600,00003.217257,00002.630855,00003.405882,-00001.325207,-00000.295648,-00000.544456,-00000.009394,-00000.079244,-00000.135044
0000000002471,00002.650211,00002.406939,00002.420694,00003.441703,00003.042617,00003.028037,00002.720892,00003.216806,00002.629995,00003.405545,-00001.329850,-00000.296217,-00000.544162,-00000.008347,-00000.078328,-00000.134384
0000000002472,00002.648653,00002.406073,00002.420254,00003.440466,00003.042760,00003.027447,00002.720687,00003.215923,00002.629287,00003.405524,-00001.333852,-00000.297035,-00000.544035,-00000.007271,-00000.077981,-00000.133828
0000000002473,00002.647216,00002.404564,00002.419539,00003.439283,00003.042946,00003.027268,00002.720446,00003.215177,00002.628555,00003.405963,-00001.336716,-00000.298244,-00000.544148,-00000.006380,-00000.078290,-00000.133629
0000000002474,00002.645889,00002.403101,00002.418802,00003.438593,00003.042704,00003.026766,00002.720272,00003.213700,00002.627589,00003.405218,-00001.337584,-00000.300029,-00000.544403,-00000.005465,-00000.078720,-00000.133881
0000000002475,00002.644665,00002.401454,00002.418193,00003.437586,00003.042500,00003.026614,00002.720067,00003.212702,00002.626965,00003.404867,-00001.337846,-00000.302147,-00000.544499,-00000.004706,-00000.078621,-00000.134075
0000000002476,00002.643536,00002.399846,00002.417565,00003.436635,00003.041931,00003.026549,00002.719919,00003.211807,00002.626506,00003.404233,-00001.338584,-00000.303666,-00000.544716,-00000.003926,-00000.078624,-00000.133927
0000000002477,00002.642857,00002.398081,00002.417410,00003.435778,00003.041395,00003.026420,00002.719382,00003.211320,00002.625612,00003.403933,-00001.339895,-00000.304743,-00000.544797,-00000.003643,-00000.078539,-00000.134091
0000000002478,00002.641896,00002.396349,00002.416875,00003.434606,00003.041273,00003.026365,00002.719256,00003.210558,00002.625221,00003.403394,-00001.341612,-00000.304948,-00000.544982,-00000.003705,-00000.078905,-00000.134328
0000000002479,00002.640955,00002.395209,00002.416018,00003.433876,00003.041179,00003.026255,00002.719161,00003.209781,00002.624824,00003.403139,-00001.343091,-00000.305140,-00000.545052,-00000.004190,-00000.079195,-00000.134468
0000000002480,00002.640137,00002.393735,00002.415563,00003.432516,00003.041439,00003.025845,00002.719054,00003.209133,00002.624491,00003.403406,-00001.344553,-00000.306403,-00000.545572,-00000.004606,-00000.079869,-00000.134670
0000000002481,00002.639336,00002.392765,00002.414832,00003.431532,00003.041721,00003.025388,00002.718973,00003.208108,00002.623789,00003.403189,-00001.345812,-00000.308743,-00000.545994,-00000.005018,-00000.080117,-00000.135152
0000000002482,00002.638639,00002.391510,00002.414082,00003.430374,00003.041580,00003.025039,00002.718882,00003.207194,00002.623143,00003.402690,-00001.347782,-00000.311269,-00000.546436,-00000.005009,-00000.079965,-00000.135324
0000000002483,00002.638320,00002.390321,00002.413461,00003.429899,00003.041095,00003.025013,00002.718813,00003.206321,00002.622546,00003.402142,-00001.350305,-00000.313261,-00000.546796,-00000.005360,-00000.080176,-00000.135371
0000000002484,00002.637727,00002.389253,00002.412822,00003.429639,00003.040974,00003.025079,00002.718735,00003.205180,00002.621996,00003.401718,-00001.353796,-00000.315049,-00000.547173,-00000.005715,-00000.080409,-00000.135155
0000000002485,00002.637819,00002.388241,00002.412293,00003.429234,00003.040924,00003.025057,00002.718314,00003.204437,00002.621487,00003.401252,-00001.357032,-00000.316744,-00000.547478,-00000.006014,-00000.080588,-00000.134832
0000000002486,00002.637676,00002.387331,00002.411749,00003.428287,00003.041184,00003.024750,00002.718248,00003.203828,00002.620656,00003.401616,-00001.360004,-00000.318629,-00000.547799,-00000.006317,-00000.080787,-00000.134648
0000000002487,00002.637029,00002.386470,00002.410936,00003.427580,00003.040779,00003.024369,00002.718252,00003.202471,00002.619861,00003.401219,-00001.362034,-00000.321161,-00000.548422,-00000.006571,-00000.080940,-00000.134374
0000000002488,00002.636545,00002.385696,00002.410473,00003.427137,00003.040637,00003.023745,00002.718196,00003.201590,00002.619153,00003.401166,-00001.363112,-00000.324942,-00000.549058,-00000.006466,-00000.080746,-00000.134217
0000000002489,00002.636356,00002.384962,00002.410144,00003.426897,00003.040655,00003.023783,00002.718200,00003.201159,00002.618476,00003.401191,-00001.364477,-00000.329275,-00000.549589,-00000.006320,-00000.080514,-00000.133983
0000000002490,00002.635944,00002.383940,00002.409750,00003.425794,00003.040172,00003.023252,00002.717789,00003.200046,00002.617148,00003.401146,-00001.366121,-00000.333219,-00000.550130,-00000.005867,-00000.080349,-00000.133850
0000000002491,00002.635783,00002.382953,00002.409106,00003.424502,00003.039824,00003.022559,00002.717792,00003.199317,00002.616209,00003.401167,-00001.367283,-00000.336544,-00000.550582,-00000.005380,-00000.080151,-00000.134013
0000000002492,00002.636521,00002.382446,00002.408046,00003.424652,00003.039413,00003.023195,00002.717805,00003.198733,00002.615804,00003.400766,-00001.367594,-00000.338814,-00000.551405,-00000.004995,-00000.080010,-00000.133900
0000000002493,00002.636747,00002.381968,00002.406772,00003.424640,00003.039117,00003.023330,00002.717808,00003.198112,00002.615367,00003.400784,-00001.367132,-00000.341282,-00000.552515,-00000.004580,-00000.079842,-00000.133314
0000000002494,00002.636650,00002.381536,00002.405506,00003.423679,00003.039129,00003.022783,00002.717819,00003.197252,00002.615022,00003.400443,-00001.366309,-00000.344302,-00000.553579,-00000.004615,-00000.080085,-00000.133217
0000000002495,00002.636479,00002.381130,00002.404060,00003.423306,00003.038877,00003.022536,00002.717821,00003.196723,00002.614650,00003.400095,-00001.365190,-00000.348217,-00000.554524,-00000.004262,-00000.080667,-00000.133806
0000000002496,00002.636759,00002.380037,00002.402982,00003.422488,00003.038525,00003.022433,00002.717468,00003.195991,00002.613631,00003.399805,-00001.364851,-00000.352603,-00000.555067,-00000.003566,-00000.081600,-00000.134812
0000000002497,00002.636614,00002.378965,00002.402113,00003.421808,00003.038673,00003.022222,00002.717470,00003.195178,00002.612952,00003.399509,-00001.365350,-00000.356661,-00000.555146,-00000.002902,-00000.082458,-00000.135314
0000000002498,00002.636489,00002.378034,00002.400833,00003.420749,00003.038374,00003.021409,00002.717169,00003.194192,00002.612084,00003.398899,-00001.366150,-00000.360032,-00000.555246,-00000.002310,-00000.083252,-00000.135808
0000000002499,00002.636366,00002.377485,00002.399730,00003.420170,00003.038500,00003.021230,00002.717170,00003.193500,00002.611506,00003.398284,-00001.366575,-00000.362398,-00000.555675,-00000.002108,-00000.083982,-00000.135872
0000000002500,00002.636623,00002.377056,00002.399003,00003.419993,00003.038245,00003.021626,00002.716914,00003.193023,00002.611130,00003.398128,-00001.365805,-00000.363816,-00000.556123,-00000.001966,-00000.084296,-00000.135930
0000000002501,00002.636880,00002.376588,00002.398428,00003.419138,00003.038352,00003.021474,00002.716916,00003.192434,00002.610638,00003.398330,-00001.363990,-00000.365105,-00000.556852,-00000.002157,-00000.084192,-00000.135622
0000000002502,00002.637318,00002.375098,00002.396956,00003.418259,00003.037501,00003.021318,00002.716336,00003.191164,00002.609536,00003.398006,-00001.360701,-00000.368861,-00000.557853,-00000.002562,-00000.084733,-00000.135771
0000000002503,00002.637328,00002.374193,00002.395340,00003.417874,00003.037139,00003.021186,00002.716206,00003.188632,00002.608598,00003.397730,-00001.362254,-00000.373509,-00000.558343,-00000.002181,-00000.086282,-00000.135535
0000000002504,00002.637178,00002.373974,00002.394628,00003.417820,00003.037753,00003.021221,00002.716356,00003.187819,00002.608420,00003.397634,-00001.363306,-00000.375211,-00000.558573,-00000.002048,-00000.087510,-00000.134845
0000000002505,00002.637337,00002.373423,00002.394327,00003.417184,00003.037919,00003.021073,00002.716094,00003.186838,00002.607800,00003.397859,-00001.363939,-00000.376378,-00000.558759,-00000.002220,-00000.088689,-00000.134247
0000000002506,00002.637344,00002.373129,00002.393102,00003.416596,00003.038221,00003.020977,00002.716000,00003.184586,00002.607483,00003.397242,-00001.365737,-00000.380272,-00000.559477,-00000.002615,-00000.089287,-00000.134963
0000000002507,00002.637350,00002.371791,00002.392059,00003.415007,00003.038840,00003.020896,00002.715919,00003.182669,00002.606487,00003.397806,-00001.367267,-00000.383949,-00000.560451,-00000.002952,-00000.090159,-00000.135573
0000000002508,00002.637574,00002.371764,00002.391258,00003.414718,00003.038956,00003.020918,00002.716112,00003.181905,00002.606432,00003.397738,-00001.367916,-00000.385570,-00000.561264,-00000.002407,-00000.090754,-00000.135982
0000000002509,00002.638272,00002.371355,00002.390489,00003.414134,00003.039466,00003.021208,00002.715652,00003.180750,00002.605955,00003.397865,-00001.369485,-00000.389911,-00000.562335,-00000.000961,-00000.093222,-00000.138255
0000000002510,00002.638757,00002.370609,00002.390107,00003.413121,00003.039816,00003.021493,00002.715429,00003.180373,00002.605536,00003.398076,-00001.370713,-00000.391813,-00000.562966,-00000.000070,-00000.093548,-00000.139330
0000000002511,00002.640004,00002.370009,00002.388784,00003.411686,00003.041287,00003.022423,00002.714345,00003.178357,00002.604830,00003.397427,-00001.372954,-00000.394500,-00000.563784,00000.001391,-00000.094875,-00000.140016
0000000002512,00002.640405,00002.369729,00002.388244,00003.410836,00003.042339,00003.022645,00002.714618,00003.177531,00002.604533,00003.397702,-00001.373610,-00000.395717,-00000.563969,00000.002353,-00000.095459,-00000.140077
0000000002513,00002.641407,00002.369622,00002.386472,00003.410467,00003.043797,00003.023041,00002.714380,00003.175212,00002.604702,00003.397472,-00001.375420,-00000.398549,-00000.564275,00000.004180,-00000.096864,-00000.140289
0000000002514,00002.642261,00002.368806,00002.385327,00003.408701,00003.045401,00003.023015,00002.713815,00003.173600,00002.603394,00003.397638,-00001.379501,-00000.399871,-00000.563809,00000.005010,-00000.098423,-00000.139745
0000000002515,00002.642785,00002.368692,00002.384586,00003.407760,00003.046481,00003.023528,00002.713791,00003.172638,00002.603182,00003.397873,-00001.381482,-00000.399875,-00000.563608,00000.005068,-00000.098765,-00000.139552
0000000002516,00002.642987,00002.368474,00002.383989,00003.407198,00003.047130,00003.023719,00002.713696,00003.171503,00002.603370,00003.397780,-00001.382613,-00000.399545,-00000.563776,00000.004990,-00000.099025,-00000.139281
0000000002517,00002.643605,00002.366740,00002.382850,00003.405918,00003.047875,00003.024318,00002.712507,00003.170443,00002.601898,00003.397538,-00001.385987,-00000.400719,-00000.564111,00000.004974,-00000.099900,-00000.139249
0000000002518,00002.643769,00002.365989,00002.381155,00003.405191,00003.048510,00003.025191,00002.711857,00003.168815,00002.601007,00003.397332,-00001.391399,-00000.401719,-00000.563670,00000.005323,-00000.101733,-00000.138496
0000000002519,00002.644146,00002.365702,00002.380335,00003.404511,00003.049322,00003.025144,00002.711626,00003.167813,00002.600613,00003.397160,-00001.393230,-00000.401567,-00000.563499,00000.005722,-00000.102562,-00000.138332
0000000002520,00002.644955,00002.366194,00002.379377,00003.404719,00003.050105,00003.026257,00002.711833,00003.167301,00002.601002,00003.397010,-00001.395751,-00000.402804,-00000.563149,00000.005596,-00000.103999,-00000.139530
0000000002521,00002.645423,00002.366149,00002.378847,00003.404772,00003.050492,00003.026620,00002.711505,00003.166975,00002.600947,00003.396644,-00001.397605,-00000.404128,-00000.562975,00000.005872,-00000.104986,-00000.141193
0000000002522,00002.645679,00002.366212,00002.377747,00003.404578,00003.051100,00003.027514,00002.711005,00003.166225,00002.600924,00003.396208,-00001.401289,-00000.406071,-00000.562340,00000.006450,-00000.108239,-00000.144142
0000000002523,00002.645920,00002.366661,00002.377558,00003.404013,00003.051701,00003.027702,00002.710816,00003.166187,00002.600944,00003.396519,-00001.401994,-00000.405987,-00000.562235,00000.006742,-00000.109314,-00000.145084
0000000002524,00002.646828,00002.367736,00002.377375,00003.403207,00003.052493,00003.028071,00002.710780,00003.166280,00002.600558,00003.396827,-00001.400672,-00000.405115,-00000.561710,00000.007191,-00000.110111,-00000.146366
0000000002525,00002.647601,00002.369014,00002.376857,00003.402883,00003.053167,00003.028749,00002.711113,00003.165997,00002.600955,00003.396727,-00001.399547,-00000.404735,-00000.561626,00000.007573,-00000.110788,-00000.146369
0000000002526,00002.647484,00002.369562,00002.376533,00003.402277,00003.053732,00003.028901,00002.711250,00003.165416,00002.600918,00003.396812,-00001.400302,-00000.405506,-00000.561620,00000.007718,-00000.111282,-00000.146362
0000000002527,00002.647533,00002.370102,00002.376416,00003.401882,00003.054466,00003.029326,00002.711396,00003.165393,00002.600930,00003.397004,-00001.400766,-00000.405863,-00000.561192,00000.007898,-00000.112091,-00000.146371
0000000002528,00002.647112,00002.371391,00002.375678,00003.401030,00003.054846,00003.029454,00002.711638,00003.164516,00002.601272,00003.397240,-00001.401078,-00000.405372,-00000.560460,00000.007812,-00000.113200,-00000.146011
0000000002529,00002.647843,00002.372125,00002.375412,00003.400668,00003.055170,00003.030288,00002.711117,00003.164495,00002.601200,00003.397078,-00001.402795,-00000.404591,-00000.559836,00000.007376,-00000.113418,-00000.145704
0000000002530,00002.648026,00002.372464,00002.375158,00003.400240,00003.055257,00003.030637,00002.710893,00003.164754,00002.601177,00003.397131,-00001.403716,-00000.403507,-00000.559569,00000.007156,-00000.113314,-00000.145753
0000000002531,00002.648620,00002.373401,00002.374607,00003.399632,00003.055519,00003.031296,00002.710483,00003.164698,00002.601120,00003.396986,-00001.405766,-00000.400464,-00000.559441,00000.006818,-00000.114604,-00000.145847
0000000002532,00002.648047,00002.374462,00002.374204,00003.399618,00003.055564,00003.032119,00002.710748,00003.164349,00002.601097,00003.396670,-00001.407641,-00000.393289,-00000.559812,00000.005694,-00000.119016,-00000.149539
0000000002533,00002.647913,00002.374740,00002.374520,00003.399465,00003.055418,00003.032557,00002.710723,00003.163990,00002.601051,00003.396593,-00001.412736,-00000.392854,-00000.558559,00000.005936,-00000.124900,-00000.158503
0000000002534,00002.648161,00002.374976,00002.374426,00003.399335,00003.055294,00003.033293,00002.710701,00003.164047,00002.601012,00003.396164,-00001.417798,-00000.391758,-00000.556767,00000.006867,-00000.130271,-00000.165771
0000000002535,00002.648336,00002.375101,00002.374630,00003.399138,00003.055346,00003.033449,00002.710474,00003.164335,00002.600646,00003.396281,-00001.420511,-00000.391265,-00000.556003,00000.007117,-00000.131879,-00000.168329
0000000002536,00002.648373,00002.375540,00002.374709,00003.398862,00003.055914,00003.033557,00002.710683,00003.164458,00002.600616,00003.396525,-00001.423559,-00000.391550,-00000.555241,00000.007660,-00000.133393,-00000.170507
0000000002537,00002.647827,00002.374570,00002.374225,00003.398459,00003.056080,00003.033781,00002.711030,00003.164083,00002.600279,00003.396470,-00001.432091,-00000.392462,-00000.553217,00000.009060,-00000.135688,-00000.174176
0000000002538,00002.647645,00002.374042,00002.374426,00003.398370,00003.056426,00003.033948,00002.710812,00003.164346,00002.600013,00003.396917,-00001.435601,-00000.391580,-00000.552355,00000.009550,-00000.136907,-00000.175721
0000000002539,00002.647208,00002.373294,00002.374709,00003.397315,00003.056877,00003.033389,00002.710777,00003.163988,00002.600129,00003.397166,-00001.440166,-00000.388134,-00000.550760,00000.009944,-00000.139768,-00000.177526
0000000002540,00002.646968,00002.373039,00002.374442,00003.397461,00003.057011,00003.033464,00002.710543,00003.163801,00002.600110,00003.396691,-00001.442435,-00000.386040,-00000.550027,00000.009870,-00000.141011,-00000.178252
0000000002541,00002.647199,00002.372657,00002.374225,00003.397505,00003.056899,00003.034001,00002.710385,00003.164045,00002.600227,00003.396290,-00001.444415,-00000.384112,-00000.549402,00000.009917,-00000.142929,-00000.178701
0000000002542,00002.646828,00002.372115,00002.374538,00003.397303,00003.057281,00003.034160,00002.710051,00003.164094,00002.600310,00003.396632,-00001.447306,-00000.378874,-00000.547883,00000.010256,-00000.147433,-00000.180063
0000000002543,00002.646654,00002.371205,00002.374653,00003.397101,00003.057378,00003.034577,00002.709464,00003.164321,00002.600297,00003.396597,-00001.449367,-00000.376013,-00000.547352,00000.010565,-00000.149986,-00000.181315
0000000002544,00002.646001,00002.370153,00002.375265,00003.396597,00003.058051,00003.034650,00002.709630,00003.164329,00002.600370,00003.396893,-00001.453698,-00000.371254,-00000.545775,00000.011171,-00000.155981,-00000.183739
0000000002545,00002.645572,00002.369555,00002.375757,00003.396678,00003.058608,00003.034718,00002.709887,00003.164171,00002.600442,00003.397226,-00001.455221,-00000.368967,-00000.545127,00000.011100,-00000.158617,-00000.184587
0000000002546,00002.645080,00002.368385,00002.375480,00003.396962,00003.058372,00003.035133,00002.709627,00003.163476,00002.599768,00003.397066,-00001.455780,-00000.365618,-00000.543881,00000.010538,-00000.162966,-00000.186163
0000000002547,00002.644301,00002.368187,00002.375558,00003.396783,00003.058440,00003.035073,00002.709891,00003.163361,00002.599760,00003.397415,-00001.455662,-00000.364116,-00000.543653,00000.010057,-00000.164704,-00000.186889
0000000002548,00002.643273,00002.367584,00002.375673,00003.396689,00003.058592,00003.034710,00002.709993,00003.162423,00002.599550,00003.397227,-00001.456518,-00000.362214,-00000.542626,00000.010012,-00000.169598,-00000.187759
0000000002549,00002.642962,00002.366798,00002.375714,00003.396685,00003.058310,00003.034752,00002.709472,00003.162380,00002.598961,00003.397123,-00001.457440,-00000.361375,-00000.542226,00000.010014,-00000.171579,-00000.187920
0000000002550,00002.642132,00002.364950,00002.375443,00003.395518,00003.058119,00003.034073,00002.708911,00003.161588,00002.597781,00003.397342,-00001.457669,-00000.359880,-00000.541774,00000.008525,-00000.174000,-00000.186823
0000000002551,00002.641652,00002.364256,00002.375908,00003.395561,00003.057798,00003.033411,00002.708811,00003.161254,00002.597567,00003.397294,-00001.457034,-00000.361085,-00000.542096,00000.007820,-00000.174518,-00000.186753
0000000002552,00002.641427,00002.363377,00002.376300,00003.395612,00003.057231,00003.033133,00002.708796,00003.161277,00002.597140,00003.397890,-00001.456413,-00000.362962,-00000.542478,00000.006895,-00000.174973,-00000.186977
0000000002553,00002.640463,00002.362401,00002.376305,00003.396055,00003.055749,00003.031969,00002.708698,00003.160649,00002.596594,00003.397632,-00001.456069,-00000.367399,-00000.542714,00000.006232,-00000.175801,-00000.187472
0000000002554,00002.639752,00002.361535,00002.376333,00003.396395,00003.054899,00003.031489,00002.708626,00003.160407,00002.596077,00003.397597,-00001.456697,-00000.369561,-00000.542948,00000.006084,-00000.176539,-00000.187730
0000000002555,00002.639037,00002.360833,00002.376333,00003.396359,00003.053401,00003.030570,00002.708553,00003.159183,00002.595326,00003.397382,-00001.457399,-00000.373017,-00000.543114,00000.005542,-00000.177135,-00000.187387
0000000002556,00002.638998,00002.359828,00002.376675,00003.396753,00003.052379,00003.030135,00002.708181,00003.158988,00002.594700,00003.397224,-00001.457850,-00000.375118,-00000.543812,00000.005134,-00000.177415,-00000.187942
0000000002557,00002.638033,00002.359017,00002.376986,00003.397752,00003.050893,00003.029418,00002.707812,00003.157975,00002.593791,00003.396702,-00001.462009,-00000.378836,-00000.544213,00000.005096,-00000.176792,-00000.189744
0000000002558,00002.637548,00002.358020,00002.377367,00003.398008,00003.050369,00003.029121,00002.707768,00003.157926,00002.592746,00003.397044,-00001.464820,-00000.380116,-00000.543994,00000.005051,-00000.176313,-00000.189841
0000000002559,00002.636848,00002.357238,00002.377614,00003.397877,00003.049991,00003.028806,00002.707498,00003.157838,00002.591929,00003.397346,-00001.467363,-00000.380550,-00000.544192,00000.004701,-00000.175536,-00000.189101
0000000002560,00002.635477,00002.356086,00002.378149,00003.396895,00003.049223,00003.027561,00002.707593,00003.156996,00002.590344,00003.397531,-00001.470107,-00000.380921,-00000.544536,00000.004002,-00000.173378,-00000.187103
0000000002561,00002.635125,00002.355673,00002.378425,00003.397188,00003.048480,00003.027400,00002.707561,00003.156652,00002.589950,00003.397470,-00001.471527,-00000.382427,-00000.544686,00000.004023,-00000.172050,-00000.186610
0000000002562,00002.634010,00002.354391,00002.378839,00003.397397,00003.047211,00003.026726,00002.707284,00003.155623,00002.588659,00003.396911,-00001.477642,-00000.387235,-00000.544594,00000.004513,-00000.170048,-00000.186070
0000000002563,00002.633061,00002.352574,00002.379191,00003.396849,00003.046494,00003.026152,00002.707048,00003.155111,00002.587561,00003.397161,-00001.483574,-00000.389877,-00000.544153,00000.005293,-00000.168343,-00000.185611
0000000002564,00002.632107,00002.352217,00002.378959,00003.396873,00003.045978,00003.025763,00002.707130,00003.154524,00002.587494,00003.397103,-00001.484665,-00000.390246,-00000.543948,00000.005319,-00000.167032,-00000.184482
0000000002565,00002.631527,00002.351390,00002.379129,00003.396746,00003.045520,00003.026027,00002.706848,00003.154311,00002.586988,00003.397011,-00001.485359,-00000.391037,-00000.544140,00000.005232,-00000.165441,-00000.183406
0000000002566,00002.630584,00002.350383,00002.379076,00003.395932,00003.044691,00003.025557,00002.706314,00003.153631,00002.586138,00003.396520,-00001.489055,-00000.393476,-00000.544129,00000.005542,-00000.161882,-00000.181167
0000000002567,00002.629782,00002.349888,00002.379393,00003.395602,00003.044349,00003.025520,00002.706222,00003.153415,00002.585414,00003.396829,-00001.494741,-00000.395553,-00000.543395,00000.006169,-00000.159578,-00000.179623
0000000002568,00002.629456,00002.349351,00002.379558,00003.395716,00003.044023,00003.025960,00002.706002,00003.153316,00002.585110,00003.396739,-00001.496858,-00000.395890,-00000.542859,00000.006494,-00000.158551,-00000.178926
0000000002569,00002.628821,00002.348284,00002.380529,00003.395056,00003.043779,00003.025500,00002.705594,00003.153146,00002.583814,00003.397377,-00001.499933,-00000.397970,-00000.542313,00000.006979,-00000.155654,-00000.177352
0000000002570,00002.628154,00002.347764,00002.380565,00003.394356,00003.043446,00003.025045,00002.705769,00003.152711,00002.583602,00003.397677,-00001.502412,-00000.400022,-00000.542291,00000.007157,-00000.154186,-00000.177243
0000000002571,00002.627350,00002.347296,00002.381024,00003.393897,00003.042562,00003.024721,00002.705759,00003.152268,00002.583255,00003.397450,-00001.508289,-00000.403664,-00000.541466,00000.007907,-00000.152301,-00000.177008
0000000002572,00002.626423,00002.346964,00002.381026,00003.394068,00003.042361,00003.024775,00002.705986,00003.151844,00002.583168,00003.397349,-00001.511656,-00000.404916,-00000.541090,00000.008470,-00000.151813,-00000.176887
0000000002573,00002.626239,00002.346252,00002.380690,00003.394741,00003.041639,00003.025217,00002.705943,00003.151894,00002.582886,00003.397171,-00001.517972,-00000.407468,-00000.541170,00000.009025,-00000.149555,-00000.175254
0000000002574,00002.625720,00002.345646,00002.380768,00003.394588,00003.041025,00003.025231,00002.705544,00003.151936,00002.582283,00003.397382,-00001.521898,-00000.410729,-00000.541601,00000.009859,-00000.146544,-00000.172413
0000000002575,00002.625633,00002.345334,00002.380832,00003.395124,00003.040935,00003.025255,00002.705736,00003.151653,00002.582186,00003.397308,-00001.522691,-00000.412161,-00000.541628,00000.010223,-00000.145379,-00000.171891
0000000002576,00002.625641,00002.344767,00002.380833,00003.395183,00003.040502,00003.025242,00002.705567,00003.151609,00002.582132,00003.397199,-00001.522700,-00000.413143,-00000.541605,00000.010570,-00000.144707,-00000.171808
0000000002577,00002.624485,00002.344744,00002.380527,00003.394965,00003.039694,00003.024889,00002.705587,00003.150967,00002.582367,00003.397406,-00001.522657,-00000.413383,-00000.541971,00000.011175,-00000.142780,-00000.172018
0000000002578,00002.624226,00002.344724,00002.380991,00003.394778,00003.039006,00003.024226,00002.705240,00003.150784,00002.581841,00003.397583,-00001.522258,-00000.412499,-00000.541920,00000.010602,-00000.140776,-00000.171472
0000000002579,00002.623909,00002.344841,00002.381440,00003.395263,00003.039096,00003.023932,00002.705822,00003.150973,00002.582144,00003.397899,-00001.522639,-00000.412293,-00000.541891,00000.010154,-00000.140066,-00000.170642
0000000002580,00002.623374,00002.344082,00002.382131,00003.395032,00003.038134,00003.023411,00002.705440,00003.150789,00002.581652,00003.398002,-00001.523693,-00000.412297,-00000.541489,00000.010095,-00000.139192,-00000.168849
0000000002581,00002.622785,00002.343660,00002.382032,00003.395157,00003.037196,00003.022818,00002.705729,00003.150079,00002.581684,00003.397860,-00001.525095,-00000.412867,-00000.541114,00000.010424,-00000.139016,-00000.169012
0000000002582,00002.622416,00002.343076,00002.382272,00003.395667,00003.035065,00003.022100,00002.705362,00003.149665,00002.581260,00003.397244,-00001.527599,-00000.413874,-00000.539739,00000.011413,-00000.138661,-00000.169639
0000000002583,00002.622103,00002.342579,00002.383203,00003.395739,00003.033614,00003.021125,00002.705412,00003.149676,00002.580899,00003.397081,-00001.530818,-00000.416182,-00000.538932,00000.012256,-00000.138359,-00000.170897
0000000002584,00002.621573,00002.342416,00002.383484,00003.396087,00003.032912,00003.021071,00002.705539,00003.149597,00002.580834,00003.397031,-00001.533219,-00000.417179,-00000.538430,00000.012453,-00000.137846,-00000.170879
0000000002585,00002.621385,00002.340929,00002.383509,00003.396459,00003.031056,00003.020613,00002.704838,00003.149255,00002.580173,00003.396537,-00001.537417,-00000.418996,-00000.537454,00000.012778,-00000.136214,-00000.170502
0000000002586,00002.621299,00002.340761,00002.383689,00003.396887,00003.030293,00003.020988,00002.704819,00003.149383,00002.579967,00003.396517,-00001.539251,-00000.419458,-00000.536987,00000.012912,-00000.135504,-00000.170140
0000000002587,00002.621152,00002.339883,00002.384046,00003.396415,00003.030277,00003.020179,00002.704950,00003.149436,00002.579435,00003.396825,-00001.543277,-00000.419485,-00000.535863,00000.013168,-00000.133857,-00000.169873
0000000002588,00002.621088,00002.339566,00002.384219,00003.396684,00003.029836,00003.020199,00002.704712,00003.149333,00002.579495,00003.396740,-00001.545067,-00000.419065,-00000.535191,00000.012928,-00000.132969,-00000.169545
0000000002589,00002.619884,00002.338865,00002.384860,00003.397330,00003.028800,00003.019870,00002.704859,00003.149030,00002.579759,00003.396653,-00001.545689,-00000.416974,-00000.533608,00000.011368,-00000.129885,-00000.167915
0000000002590,00002.618133,00002.337180,00002.386131,00003.397155,00003.027918,00003.019228,00002.704983,00003.148772,00002.579621,00003.396941,-00001.545130,-00000.415556,-00000.531899,00000.009315,-00000.127985,-00000.166891
0000000002591,00002.617616,00002.335788,00002.386897,00003.397149,00003.027393,00003.018977,00002.704928,00003.148979,00002.579413,00003.397293,-00001.544502,-00000.415551,-00000.531121,00000.008604,-00000.127133,-00000.166438
0000000002592,00002.616928,00002.333110,00002.388229,00003.397726,00003.027083,00003.019193,00002.705043,00003.149454,00002.579326,00003.397486,-00001.543394,-00000.415796,-00000.529055,00000.007325,-00000.124917,-00000.166358
0000000002593,00002.616407,00002.331839,00002.388444,00003.397967,00003.026528,00003.019303,00002.704872,00003.149346,00002.579095,00003.396979,-00001.542906,-00000.414920,-00000.528169,00000.006751,-00000.123903,-00000.165585
0000000002594,00002.615173,00002.329748,00002.389182,00003.397335,00003.025984,00003.018382,00002.704995,00003.149042,00002.578693,00003.397219,-00001.541673,-00000.413082,-00000.526905,00000.005747,-00000.121079,-00000.164544
0000000002595,00002.614809,00002.329251,00002.389292,00003.397239,00003.025923,00003.018136,00002.705223,00003.148806,00002.578881,00003.397119,-00001.540560,-00000.413241,-00000.526525,00000.005308,-00000.120081,-00000.164272
0000000002596,00002.614538,00002.327908,00002.389178,00003.397803,00003.025106,00003.017388,00002.705294,00003.147856,00002.578511,00003.396975,-00001.537136,-00000.414555,-00000.525869,00000.004519,-00000.117099,-00000.163064
0000000002597,00002.614209,00002.327124,00002.389365,00003.397681,00003.025180,00003.017239,00002.705551,00003.147527,00002.578731,00003.396925,-00001.536371,-00000.414941,-00000.525585,00000.004165,-00000.115902,-00000.162540
0000000002598,00002.613664,00002.325371,00002.389966,00003.397091,00003.024473,00003.016625,00002.705573,00003.147492,00002.578383,00003.396810,-00001.537561,-00000.414552,-00000.524343,00000.003545,-00000.113179,-00000.161589
0000000002599,00002.613564,00002.323879,00002.390116,00003.396951,00003.024235,00003.016465,00002.705592,00003.147463,00002.578087,00003.397075,-00001.537848,-00000.413131,-00000.523285,00000.002655,-00000.111587,-00000.160780
0000000002600,00002.613272,00002.323401,00002.389764,00003.397171,00003.024303,00003.016738,00002.705403,00003.146970,00002.577962,00003.396614,-00001.537767,-00000.412882,-00000.523185,00000.002425,-00000.111286,-00000.160413
0000000002601,00002.613230,00002.321839,00002.389581,00003.396656,00003.024452,00003.016924,00002.705447,00003.147018,00002.577728,00003.396182,-00001.536935,-00000.412798,-00000.522663,00000.001702,-00000.110338,-00000.159053
0000000002602,00002.613405,00002.321164,00002.389733,00003.397040,00003.024584,00003.017193,00002.705312,00003.147108,00002.577620,00003.396203,-00001.536594,-00000.412599,-00000.522290,00000.001562,-00000.109749,-00000.158469
0000000002603,00002.613706,00002.319572,00002.389917,00003.396908,00003.025054,00003.017674,00002.705007,00003.147136,00002.577074,00003.396558,-00001.533760,-00000.411469,-00000.521900,00000.000967,-00000.108303,-00000.157035
0000000002604,00002.613599,00002.318580,00002.390073,00003.396796,00003.024729,00003.017721,00002.705110,00003.147160,00002.576973,00003.396861,-00001.530984,-00000.412684,-00000.521931,00000.000097,-00000.107799,-00000.156903
0000000002605,00002.613400,00002.318514,00002.389750,00003.397089,00003.024726,00003.017957,00002.704918,00003.146762,00002.577270,00003.396788,-00001.531026,-00000.413594,-00000.521562,00000.000069,-00000.107424,-00000.156850
0000000002606,00002.612613,00002.318404,00002.389206,00003.397312,00003.026264,00003.018325,00002.705397,00003.146116,00002.577502,00003.396694,-00001.529745,-00000.415219,-00000.521644,00000.000059,-00000.107776,-00000.156745
0000000002607,00002.612669,00002.318311,00002.389105,00003.397503,00003.028661,00003.018638,00002.705442,00003.146291,00002.577700,00003.396976,-00001.527204,-00000.417327,-00000.521713,-00000.000675,-00000.107713,-00000.156293
0000000002608,00002.612839,00002.317909,00002.389219,00003.397484,00003.029190,00003.018804,00002.705335,00003.146377,00002.577685,00003.397261,-00001.526475,-00000.419032,-00000.521737,-00000.000612,-00000.106947,-00000.156304
0000000002609,00002.613079,00002.317868,00002.389019,00003.397665,00003.029251,00003.019267,00002.705480,00003.146078,00002.577505,00003.397216,-00001.525766,-00000.420936,-00000.521772,-00000.000938,-00000.106570,-00000.156634
0000000002610,00002.613428,00002.317129,00002.388947,00003.397802,00003.029027,00003.019802,00002.705150,00003.146259,00002.577340,00003.397058,-00001.523453,-00000.424371,-00000.522185,-00000.001524,-00000.107049,-00000.158012
0000000002611,00002.613726,00002.316500,00002.388522,00003.397557,00003.028474,00003.019895,00002.704868,00003.146413,00002.576473,00003.396923,-00001.518582,-00000.426570,-00000.522899,-00000.002386,-00000.107819,-00000.158460
0000000002612,00002.613831,00002.316252,00002.388283,00003.397908,00003.027866,00003.020361,00002.704803,00003.146466,00002.576518,00003.396836,-00001.515129,-00000.427576,-00000.523586,-00000.002555,-00000.107456,-00000.158684
0000000002613,00002.613616,00002.316327,00002.387797,00003.397711,00003.027641,00003.019975,00002.704992,00003.146182,00002.576824,00003.396809,-00001.511896,-00000.429167,-00000.524233,-00000.002756,-00000.107024,-00000.159204
0000000002614,00002.613522,00002.315817,00002.387906,00003.397479,00003.027294,00003.019679,00002.705097,00003.146347,00002.576759,00003.396711,-00001.507292,-00000.433193,-00000.525368,-00000.002709,-00000.107072,-00000.161289
0000000002615,00002.613080,00002.316108,00002.386910,00003.397282,00003.026998,00003.019065,00002.705549,00003.145763,00002.576705,00003.395902,-00001.502285,-00000.435168,-00000.525972,-00000.002306,-00000.106751,-00000.162338
0000000002616,00002.613245,00002.316581,00002.386454,00003.397598,00003.027249,00003.019189,00002.705772,00003.145850,00002.577095,00003.395902,-00001.499692,-00000.435859,-00000.526396,-00000.002465,-00000.106427,-00000.162276
0000000002617,00002.613207,00002.316759,00002.386037,00003.397746,00003.026597,00003.019011,00002.705761,00003.145339,00002.576990,00003.395577,-00001.496540,-00000.437801,-00000.526484,-00000.002824,-00000.106201,-00000.162816
0000000002618,00002.612811,00002.316910,00002.385682,00003.397872,00003.026406,00003.018496,00002.706114,00003.144905,00002.577264,00003.395662,-00001.493132,-00000.440180,-00000.527285,-00000.002767,-00000.104921,-00000.163638
0000000002619,00002.613045,00002.317010,00002.384990,00003.397784,00003.025942,00003.018290,00002.705869,00003.144744,00002.577156,00003.395372,-00001.491975,-00000.440889,-00000.527659,-00000.002983,-00000.105065,-00000.163750
0000000002620,00002.612837,00002.317039,00002.384655,00003.397979,00003.025880,00003.018420,00002.706053,00003.144535,00002.577497,00003.395372,-00001.491318,-00000.441842,-00000.527966,-00000.002718,-00000.105282,-00000.163975
0000000002621,00002.612860,00002.316786,00002.384505,00003.398070,00003.025432,00003.018356,00002.706363,00003.144220,00002.577333,00003.395126,-00001.489412,-00000.443256,-00000.528547,-00000.002677,-00000.104864,-00000.163899
0000000002622,00002.613242,00002.316933,00002.384741,00003.398510,00003.025051,00003.019027,00002.706264,00003.144314,00002.577555,00003.395278,-00001.484524,-00000.444461,-00000.529041,-00000.003004,-00000.103420,-00000.163109
0000000002623,00002.613440,00002.317041,00002.384839,00003.398402,00003.025390,00003.019209,00002.706376,00003.144578,00002.577435,00003.395725,-00001.482166,-00000.445215,-00000.529634,-00000.003184,-00000.102937,-00000.162143
0000000002624,00002.613567,00002.317421,00002.384216,00003.398522,00003.025089,00003.019236,00002.706180,00003.144395,00002.577382,00003.395408,-00001.480000,-00000.446212,-00000.530187,-00000.003646,-00000.102553,-00000.160985
0000000002625,00002.614206,00002.317837,00002.383769,00003.398533,00003.025121,00003.020138,00002.705746,00003.144826,00002.577235,00003.395519,-00001.476511,-00000.448791,-00000.531525,-00000.004555,-00000.101815,-00000.158088
0000000002626,00002.614751,00002.318916,00002.383388,00003.398542,00003.025512,00003.020544,00002.705739,00003.144831,00002.577472,00003.395976,-00001.475355,-00000.449535,-00000.532302,-00000.004966,-00000.103001,-00000.156348
0000000002627,00002.614773,00002.319654,00002.383186,00003.398375,00003.025821,00003.020557,00002.705907,00003.144631,00002.577398,00003.395934,-00001.475607,-00000.449909,-00000.532622,-00000.004977,-00000.103683,-00000.155998
0000000002628,00002.615233,00002.320463,00002.382892,00003.398770,00003.025019,00003.021263,00002.705876,00003.144664,00002.577248,00003.395241,-00001.475674,-00000.450850,-00000.533236,-00000.005325,-00000.104229,-00000.155294
0000000002629,00002.615300,00002.320926,00002.382789,00003.399281,00003.025093,00003.021910,00002.705674,00003.145255,00002.577537,00003.395715,-00001.475495,-00000.451380,-00000.533889,-00000.005668,-00000.104144,-00000.154586
0000000002630,00002.615262,00002.320789,00002.382642,00003.399469,00003.024700,00003.022590,00002.705487,00003.145781,00002.577484,00003.395739,-00001.476819,-00000.452739,-00000.534121,-00000.005985,-00000.104330,-00000.154333
0000000002631,00002.615319,00002.320458,00002.382917,00003.399179,00003.024762,00003.022778,00002.705315,00003.145921,00002.577367,00003.396143,-00001.479569,-00000.453916,-00000.534314,-00000.005913,-00000.105346,-00000.154455
0000000002632,00002.614924,00002.319978,00002.382792,00003.399339,00003.024790,00003.022994,00002.705156,00003.146369,00002.577321,00003.396526,-00001.482148,-00000.454710,-00000.534512,-00000.005820,-00000.106593,-00000.154239
0000000002633,00002.614972,00002.319696,00002.382663,00003.399091,00003.025206,00003.023154,00002.705009,00003.146488,00002.577222,00003.396870,-00001.484126,-00000.455349,-00000.534676,-00000.005760,-00000.107821,-00000.153981
0000000002634,00002.615361,00002.319651,00002.382920,00003.399228,00003.025230,00003.023338,00002.704874,00003.146507,00002.577183,00003.396834,-00001.485233,-00000.455663,-00000.534844,-00000.006043,-00000.108519,-00000.153797
0000000002635,00002.615403,00002.319773,00002.382810,00003.399743,00003.025221,00003.023474,00002.705112,00003.146246,00002.577461,00003.396763,-00001.485466,-00000.455481,-00000.534984,-00000.005992,-00000.108839,-00000.153577
0000000002636,00002.615371,00002.319735,00002.382303,00003.399859,00003.024879,00003.023631,00002.704996,00003.146262,00002.577428,00003.396732,-00001.484957,-00000.455748,-00000.535127,-00000.006233,-00000.108708,-00000.153058
0000000002637,00002.615406,00002.320202,00002.382209,00003.399934,00003.025234,00003.023747,00002.705199,00003.146039,00002.577302,00003.397035,-00001.484792,-00000.456319,-00000.535609,-00000.006552,-00000.108618,-00000.152870
0000000002638,00002.615380,00002.320169,00002.382140,00003.399670,00003.025668,00003.023881,00002.705464,00003.146415,00002.577274,00003.397372,-00001.484722,-00000.457634,-00000.536094,-00000.006757,-00000.108869,-00000.153154
0000000002639,00002.615409,00002.319841,00002.382060,00003.399372,00003.025608,00003.023979,00002.705273,00003.146589,00002.577167,00003.397629,-00001.484219,-00000.458846,-00000.536867,-00000.007029,-00000.109518,-00000.154446
0000000002640,00002.615387,00002.320539,00002.382365,00003.399147,00003.025977,00003.024093,00002.705499,00003.146546,00002.577143,00003.397916,-00001.483071,-00000.459966,-00000.537642,-00000.007204,-00000.109731,-00000.156501
0000000002641,00002.616138,00002.321348,00002.382660,00003.399619,00003.025926,00003.024539,00002.705699,00003.147057,00002.577414,00003.398135,-00001.481554,-00000.460272,-00000.538300,-00000.007435,-00000.109921,-00000.158326
0000000002642,00002.616844,00002.321942,00002.382919,00003.399427,00003.026241,00003.024636,00002.705528,00003.147383,00002.577756,00003.398742,-00001.480214,-00000.460137,-00000.539323,-00000.007946,-00000.110103,-00000.160076
0000000002643,00002.617120,00002.322268,00002.383170,00003.399103,00003.026560,00003.025016,00002.705336,00003.147455,00002.577625,00003.398929,-00001.478560,-00000.460397,-00000.540246,-00000.008506,-00000.109901,-00000.161630
0000000002644,00002.617359,00002.323137,00002.383027,00003.399303,00003.027190,00003.025462,00002.705554,00003.147370,00002.578279,00003.398720,-00001.477056,-00000.460282,-00000.541117,-00000.008942,-00000.109693,-00000.162394
0000000002645,00002.617594,00002.324140,00002.382515,00003.399390,00003.028188,00003.025423,00002.705753,00003.147069,00002.578893,00003.398879,-00001.475286,-00000.460504,-00000.541903,-00000.009418,-00000.109885,-00000.162628
0000000002646,00002.618160,00002.324516,00002.382394,00003.399197,00003.028724,00003.025439,00002.705575,00003.146997,00002.579087,00003.399063,-00001.473643,-00000.460406,-00000.542644,-00000.009426,-00000.109708,-00000.162916
0000000002647,00002.618360,00002.325007,00002.382321,00003.398908,00003.029210,00003.025406,00002.705745,00003.146740,00002.579246,00003.398836,-00001.472135,-00000.460958,-00000.543313,-00000.009831,-00000.109870,-00000.163478
0000000002648,00002.618479,00002.325691,00002.382218,00003.399107,00003.028942,00003.025782,00002.705956,00003.146678,00002.579411,00003.398630,-00001.471099,-00000.461963,-00000.544307,-00000.010201,-00000.110808,-00000.164449
0000000002649,00002.618650,00002.325383,00002.382156,00003.398861,00003.028630,00003.025754,00002.705738,00003.146822,00002.579547,00003.398800,-00001.469816,-00000.462795,-00000.544877,-00000.010546,-00000.111672,-00000.166016
0000000002650,00002.619114,00002.325602,00002.381705,00003.399031,00003.028401,00003.025712,00002.705555,00003.146770,00002.579325,00003.398625,-00001.468209,-00000.463651,-00000.545723,-00000.010861,-00000.112108,-00000.167567
0000000002651,00002.619259,00002.325341,00002.381653,00003.398459,00003.028136,00003.025325,00002.705369,00003.146530,00002.579078,00003.398406,-00001.466028,-00000.463997,-00000.546570,-00000.011155,-00000.113206,-00000.168539
0000000002652,00002.619291,00002.325890,00002.381632,00003.398603,00003.028304,00003.024926,00002.705577,00003.146486,00002.579252,00003.398620,-00001.463934,-00000.464725,-00000.547290,-00000.011423,-00000.113577,-00000.169497
0000000002653,00002.619415,00002.326030,00002.381587,00003.398478,00003.028078,00003.024959,00002.705418,00003.146644,00002.579041,00003.398796,-00001.462440,-00000.465745,-00000.547649,-00000.011673,-00000.114149,-00000.170686
0000000002654,00002.619805,00002.326134,00002.381569,00003.398601,00003.027496,00003.025346,00002.705232,00003.146606,00002.579189,00003.398616,-00001.461383,-00000.466365,-00000.547900,-00000.011901,-00000.115191,-00000.171865
0000000002655,00002.619910,00002.326616,00002.381531,00003.398858,00003.027304,00003.025011,00002.705460,00003.146378,00002.579373,00003.398403,-00001.460474,-00000.466871,-00000.548568,-00000.012114,-00000.116403,-00000.172878
0000000002656,00002.620243,00002.326706,00002.381516,00003.399325,00003.026808,00003.025340,00002.705301,00003.146346,00002.579499,00003.398249,-00001.458849,-00000.467398,-00000.549144,-00000.012671,-00000.117290,-00000.173518
0000000002657,00002.621058,00002.326753,00002.381846,00003.399907,00003.026281,00003.025781,00002.705133,00003.146877,00002.579292,00003.398431,-00001.456987,-00000.468192,-00000.549713,-00000.013215,-00000.117959,-00000.174017
