0000000000741,00002.746263,00002.292912,00002.319323,00003.080630,00002.914978,00003.007103,00002.844014,00003.339271,00002.879999,00002.557287,-00000.347444,-00000.093285,-00000.569278,-00000.002632,-00000.164689,00000.030622
0000000000742,00002.746247,00002.292553,00002.319579,00003.080455,00002.915199,00003.006939,00002.844044,00003.339476,00002.879924,00002.557621,-00000.347367,-00000.093236,-00000.569005,-00000.002380,-00000.165544,00000.030493
0000000000743,00002.746399,00002.292619,00002.319456,00003.080748,00002.915059,00003.007271,00002.844126,00003.339385,00002.879839,00002.557225,-00000.347659,-00000.093200,-00000.568794,-00000.002240,-00000.166321,00000.030422
0000000000744,00002.746022,00002.293039,00002.319311,00003.080599,00002.915246,00003.006768,00002.844514,00003.339197,00002.879775,00002.557147,-00000.347955,-00000.093158,-00000.568562,-00000.002026,-00000.167411,00000.029950
0000000000745,00002.746514,00002.293457,00002.319569,00003.080848,00002.915127,00003.007051,00002.844584,00003.339482,00002.879702,00002.557173,-00000.347841,-00000.093127,-00000.568383,-00000.001907,-00000.168436,00000.029526
0000000000746,00002.746556,00002.294178,00002.319808,00003.081084,00002.915287,00003.007348,00002.844551,00003.339685,00002.879648,00002.557106,-00000.347731,-00000.093092,-00000.568185,-00000.001725,-00000.169364,00000.029124
0000000000747,00002.746250,00002.294534,00002.319665,00003.080934,00002.915548,00003.007226,00002.844611,00003.339565,00002.879586,00002.557128,-00000.347634,-00000.093065,-00000.568395,-00000.001624,-00000.170236,00000.028764
0000000000748,00002.746285,00002.294784,00002.319506,00003.081135,00002.915321,00003.007479,00002.844220,00003.339737,00002.879540,00002.557071,-00000.347540,-00000.093035,-00000.568227,-00000.001468,-00000.171026,00000.028421
0000000000749,00002.746387,00002.294725,00002.319384,00003.081369,00002.915181,00003.007738,00002.843908,00003.339998,00002.879488,00002.557091,-00000.347457,-00000.093013,-00000.568042,-00000.001382,-00000.171769,00000.028114
0000000000750,00002.746780,00002.294938,00002.319249,00003.081540,00002.914988,00003.007954,00002.843576,00003.340145,00002.879448,00002.557042,-00000.347377,-00000.092987,-00000.567899,-00000.001250,-00000.172441,00000.027823
0000000000751,00002.746867,00002.294888,00002.319145,00003.081740,00002.914868,00003.008174,00002.843673,00003.340366,00002.879403,00002.557421,-00000.347307,-00000.092968,-00000.567743,-00000.001177,-00000.173073,00000.027199
0000000000752,00002.747202,00002.294706,00002.319393,00003.081523,00002.915067,00003.008358,00002.843753,00003.340491,00002.879370,00002.557742,-00000.347239,-00000.092946,-00000.567621,-00000.001064,-00000.173283,00000.026588
0000000000753,00002.746913,00002.295026,00002.319304,00003.081693,00002.914965,00003.008182,00002.843835,00003.340317,00002.879332,00002.557702,-00000.347179,-00000.092930,-00000.567487,-00000.001002,-00000.173458,00000.026057
0000000000754,00002.746835,00002.295234,00002.319515,00003.081508,00002.915134,00003.007976,00002.843903,00003.340424,00002.879303,00002.557976,-00000.347121,-00000.092911,-00000.567383,-00000.000906,-00000.173637,00000.025537
0000000000755,00002.746952,00002.295869,00002.319803,00003.081290,00002.915410,00003.007826,00002.843973,00003.340276,00002.879271,00002.557942,-00000.347070,-00000.092897,-00000.567270,-00000.000853,-00000.173786,00000.025085
0000000000756,00002.746886,00002.295684,00002.319619,00003.081132,00002.915191,00003.007651,00002.843669,00003.340366,00002.879247,00002.558175,-00000.347021,-00000.092518,-00000.567181,-00000.000771,-00000.173938,00000.024642
0000000000757,00002.746622,00002.295862,00002.319501,00003.080947,00002.915426,00003.007161,00002.843728,00003.339878,00002.879219,00002.558146,-00000.346977,-00000.092507,-00000.567085,-00000.000726,-00000.173703,00000.024257
0000000000758,00002.746203,00002.296067,00002.319345,00003.081175,00002.915603,00003.007011,00002.843832,00003.339592,00002.879561,00002.557981,-00000.346935,-00000.092547,-00000.567010,-00000.000657,-00000.173469,00000.023880
0000000000759,00002.746342,00002.296581,00002.319245,00003.081380,00002.915440,00003.006957,00002.843883,00003.339176,00002.879538,00002.557956,-00000.346898,-00000.092537,-00000.566927,-00000.000618,-00000.173269,00000.023552
0000000000760,00002.746347,00002.296755,00002.319475,00003.081212,00002.915227,00003.007192,00002.843608,00003.339295,00002.879466,00002.557816,-00000.346863,-00000.092572,-00000.567226,-00000.000559,-00000.173433,00000.022868
0000000000761,00002.746465,00002.296830,00002.319389,00003.081386,00002.915089,00003.007509,00002.843288,00003.339304,00002.879083,00002.557795,-00000.347194,-00000.092563,-00000.567156,-00000.000526,-00000.173625,00000.022227
0000000000762,00002.746108,00002.296979,00002.319222,00003.081243,00002.915271,00003.007347,00002.843780,00003.339043,00002.879022,00002.557676,-00000.347526,-00000.092592,-00000.567047,-00000.000476,-00000.173764,00000.021645
0000000000763,00002.746208,00002.297043,00002.319149,00003.081392,00002.915153,00003.007616,00002.843871,00003.339413,00002.879059,00002.557658,-00000.347808,-00000.092585,-00000.566988,-00000.000448,-00000.173928,00000.021098
0000000000764,00002.746266,00002.297532,00002.319370,00003.081633,00002.915307,00003.007478,00002.844289,00003.339191,00002.879370,00002.557920,-00000.348091,-00000.092610,-00000.566895,-00000.000768,-00000.174047,00000.020240
0000000000765,00002.746352,00002.297949,00002.319671,00003.081759,00002.915933,00003.007707,00002.844729,00003.339506,00002.879764,00002.558267,-00000.348332,-00000.092604,-00000.567207,-00000.001107,-00000.173823,00000.019049
0000000000766,00002.746764,00002.298003,00002.319496,00003.081602,00002.915702,00003.007952,00002.844360,00003.339680,00002.879304,00002.558127,-00000.348935,-00000.092988,-00000.567492,-00000.001379,-00000.173561,00000.017956
0000000000767,00002.746837,00002.297995,00002.319389,00003.081346,00002.915871,00003.007785,00002.844372,00003.339948,00002.878914,00002.558423,-00000.349502,-00000.092982,-00000.567757,-00000.001668,-00000.173371,00000.016580
0000000000768,00002.746825,00002.298041,00002.319240,00003.081212,00002.916037,00003.007631,00002.844420,00003.339733,00002.878884,00002.558303,-00000.350016,-00000.092947,-00000.567999,-00000.001900,-00000.173148,00000.014923
0000000000769,00002.746887,00002.297671,00002.319149,00003.080632,00002.916181,00003.007488,00002.844430,00003.339598,00002.878915,00002.558192,-00000.350499,-00000.092942,-00000.567863,-00000.002145,-00000.172986,00000.013751
0000000000770,00002.746877,00002.297710,00002.319022,00003.080881,00002.916323,00003.007720,00002.844472,00003.339415,00002.878890,00002.558090,-00000.350937,-00000.092912,-00000.568068,-00000.002343,-00000.172797,00000.012341
0000000000771,00002.746567,00002.297759,00002.318945,00003.080750,00002.916446,00003.007598,00002.844480,00003.339301,00002.879279,00002.557996,-00000.351348,-00000.092908,-00000.567952,-00000.002552,-00000.172659,00000.010981
0000000000772,00002.746196,00002.297792,00002.318837,00003.080961,00002.916566,00003.007433,00002.844515,00003.339145,00002.879257,00002.557909,-00000.351720,-00000.092882,-00000.567765,-00000.002720,-00000.172135,00000.009781
0000000000773,00002.746295,00002.297470,00002.318771,00003.080850,00002.916308,00003.007692,00002.844160,00003.339410,00002.879226,00002.558192,-00000.352070,-00000.092879,-00000.567666,-00000.002898,-00000.171654,00000.008260
0000000000774,00002.746341,00002.297135,00002.318679,00003.080304,00002.916410,00003.007551,00002.844190,00003.339641,00002.879207,00002.558118,-00000.352387,-00000.092856,-00000.567506,-00000.003041,-00000.171571,00000.006875
0000000000775,00002.746426,00002.297224,00002.318986,00003.080209,00002.916916,00003.007409,00002.844613,00003.339866,00002.879181,00002.557996,-00000.352685,-00000.092854,-00000.567422,-00000.003193,-00000.171525,00000.005580
0000000000776,00002.746465,00002.296940,00002.319271,00003.080108,00002.917003,00003.007289,00002.844638,00003.339700,00002.878802,00002.557933,-00000.352955,-00000.092835,-00000.566923,-00000.003315,-00000.171454,00000.004764
0000000000777,00002.746537,00002.296653,00002.319532,00003.080027,00002.917071,00003.007169,00002.844635,00003.339892,00002.878417,00002.558192,-00000.353209,-00000.092832,-00000.566851,-00000.003444,-00000.171415,00000.004388
0000000000778,00002.746208,00002.296773,00002.319411,00003.079940,00002.917145,00003.007066,00002.844657,00003.339750,00002.878457,00002.558138,-00000.353438,-00000.092816,-00000.566790,-00000.003547,-00000.171354,00000.004056
0000000000779,00002.745906,00002.296891,00002.319271,00003.079872,00002.917203,00003.006964,00002.844655,00003.339551,00002.878492,00002.557996,-00000.353654,-00000.092814,-00000.566728,-00000.003657,-00000.171321,00000.003735
0000000000780,00002.745626,00002.296631,00002.319168,00003.079798,00002.917266,00003.006514,00002.844673,00003.339430,00002.878526,00002.557950,-00000.353850,-00000.092801,-00000.566676,-00000.004108,-00000.171269,00000.003453
0000000000781,00002.745732,00002.296369,00002.319048,00003.080102,00002.916952,00003.006789,00002.844671,00003.339623,00002.878556,00002.557829,-00000.354034,-00000.092799,-00000.566624,-00000.004202,-00000.171604,00000.003180
0000000000782,00002.745856,00002.296510,00002.318961,00003.080765,00002.917006,00003.006769,00002.844687,00003.339520,00002.878585,00002.557790,-00000.354200,-00000.092787,-00000.566579,-00000.004223,-00000.171923,00000.002939
0000000000783,00002.745947,00002.296287,00002.318859,00003.081024,00002.916739,00003.007003,00002.844685,00003.339322,00002.878610,00002.557687,-00000.354357,-00000.092786,-00000.566535,-00000.004302,-00000.171844,00000.002344
0000000000784,00002.745690,00002.296044,00002.318422,00003.080863,00002.916422,00003.006986,00002.844336,00003.339234,00002.878272,00002.557291,-00000.354861,-00000.092776,-00000.566497,-00000.004320,-00000.171753,00000.001777
0000000000785,00002.745404,00002.296217,00002.317973,00003.081083,00002.916195,00003.006823,00002.844334,00003.338703,00002.878294,00002.557203,-00000.354994,-00000.092775,-00000.566459,-00000.004388,-00000.171324,00000.001270
0000000000786,00002.745548,00002.296374,00002.317963,00003.081309,00002.915925,00003.007171,00002.844762,00003.338628,00002.878732,00002.557229,-00000.355061,-00000.092766,-00000.566790,-00000.004404,-00000.171246,00000.000787
0000000000787,00002.745667,00002.296158,00002.317943,00003.081134,00002.916094,00003.007032,00002.844761,00003.338901,00002.878387,00002.557517,-00000.355174,-00000.092765,-00000.566757,-00000.004461,-00000.170881,00000.000356
0000000000788,00002.745790,00002.295928,00002.318298,00003.080963,00002.916227,00003.007328,00002.844763,00003.339200,00002.878397,00002.557901,-00000.355231,-00000.092758,-00000.566676,-00000.004474,-00000.170815,-00000.000056
0000000000789,00002.745528,00002.296108,00002.318281,00003.081177,00002.916371,00003.007210,00002.844762,00003.339070,00002.878467,00002.557784,-00000.354965,-00000.092757,-00000.566649,-00000.004161,-00000.170866,-00000.000423
0000000000790,00002.745270,00002.296275,00002.318221,00003.081031,00002.916485,00003.007100,00002.845126,00003.338962,00002.878838,00002.557748,-00000.354651,-00000.092388,-00000.566579,-00000.003809,-00000.171173,-00000.000773
0000000000791,00002.745410,00002.296427,00002.318206,00003.080850,00002.916607,00003.006999,00002.845488,00003.338851,00002.878897,00002.557648,-00000.354424,-00000.092025,-00000.566556,-00000.003905,-00000.171580,-00000.001086
0000000000792,00002.745916,00002.296207,00002.318155,00003.080727,00002.916704,00003.007268,00002.845072,00003.339122,00002.878851,00002.557981,-00000.354156,-00000.092074,-00000.566497,-00000.003605,-00000.171478,-00000.001746
0000000000793,00002.745673,00002.295974,00002.318142,00003.080210,00002.916446,00003.006819,00002.845018,00003.339028,00002.878901,00002.557896,-00000.353963,-00000.091764,-00000.566477,-00000.003687,-00000.171461,-00000.002013
0000000000794,00002.746103,00002.295786,00002.318461,00003.080467,00002.916165,00003.007048,00002.844664,00003.339258,00002.878861,00002.557816,-00000.353735,-00000.091806,-00000.566064,-00000.003795,-00000.171374,-00000.002212
0000000000795,00002.746622,00002.295588,00002.318813,00003.080753,00002.915945,00003.007392,00002.844255,00003.339541,00002.878541,00002.557744,-00000.353571,-00000.091905,-00000.566047,-00000.003864,-00000.170998,-00000.002439
0000000000796,00002.746263,00002.295791,00002.318359,00003.080972,00002.915706,00003.007224,00002.844316,00003.339011,00002.878507,00002.557676,-00000.353740,-00000.091940,-00000.566058,-00000.003593,-00000.170924,-00000.002609
0000000000797,00002.746341,00002.295622,00002.318296,00003.080853,00002.915519,00003.007153,00002.843968,00003.338889,00002.878235,00002.557614,-00000.353963,-00000.092025,-00000.566044,-00000.003290,-00000.170966,-00000.002802
0000000000798,00002.746398,00002.295432,00002.318273,00003.080676,00002.915678,00003.007010,00002.844383,00003.338801,00002.878206,00002.557919,-00000.354107,-00000.092055,-00000.566053,-00000.003059,-00000.170903,-00000.002584
0000000000799,00002.746102,00002.295651,00002.318219,00003.080937,00002.915881,00003.006951,00002.844449,00003.338697,00002.878337,00002.558230,-00000.354296,-00000.092127,-00000.566041,-00000.003163,-00000.170939,-00000.002748
0000000000800,00002.746151,00002.295490,00002.318199,00003.080787,00002.916017,00003.007192,00002.844440,00003.338985,00002.877950,00002.558489,-00000.354419,-00000.092152,-00000.566049,-00000.002967,-00000.170885,-00000.002925
0000000000801,00002.746262,00002.295676,00002.318153,00003.081009,00002.915827,00003.007504,00002.844496,00003.338896,00002.878061,00002.558028,-00000.354580,-00000.092214,-00000.566039,-00000.003056,-00000.170916,-00000.003065
0000000000802,00002.746666,00002.295539,00002.318499,00003.081245,00002.915943,00003.007709,00002.844488,00003.339141,00002.878094,00002.558249,-00000.354684,-00000.092235,-00000.566046,-00000.002889,-00000.170870,-00000.003216
0000000000803,00002.746760,00002.295335,00002.318460,00003.081071,00002.916144,00003.007612,00002.844536,00003.339429,00002.878189,00002.558582,-00000.354822,-00000.092288,-00000.566037,-00000.002601,-00000.170896,-00000.003335
0000000000804,00002.747104,00002.294855,00002.318754,00003.081271,00002.916243,00003.007786,00002.844529,00003.339637,00002.878218,00002.558407,-00000.354911,-00000.092306,-00000.566043,-00000.002459,-00000.170857,-00000.003463
0000000000805,00002.747548,00002.294318,00002.319084,00003.081486,00002.916051,00003.008066,00002.844207,00003.339882,00002.878298,00002.558328,-00000.355028,-00000.092351,-00000.566035,-00000.002215,-00000.170879,-00000.003564
0000000000806,00002.747840,00002.294272,00002.318971,00003.082019,00002.915772,00003.008215,00002.844202,00003.339697,00002.878322,00002.558179,-00000.355466,-00000.092366,-00000.566040,-00000.002093,-00000.170846,-00000.003674
0000000000807,00002.747492,00002.294178,00002.318889,00003.082202,00002.915972,00003.008091,00002.844290,00003.339542,00002.878391,00002.558111,-00000.355928,-00000.092404,-00000.566034,-00000.002248,-00000.170865,-00000.003760
0000000000808,00002.747016,00002.294139,00002.318794,00003.081930,00002.916097,00003.007854,00002.844286,00003.339385,00002.878411,00002.557985,-00000.356302,-00000.092418,-00000.566038,-00000.002508,-00000.170837,-00000.003853
0000000000809,00002.747082,00002.294059,00002.318724,00003.082086,00002.915905,00003.008111,00002.844361,00003.339253,00002.878470,00002.557927,-00000.356695,-00000.092450,-00000.566032,-00000.002639,-00000.170853,-00000.004289
0000000000810,00002.747039,00002.294026,00002.318642,00003.082218,00002.916011,00003.007910,00002.844720,00003.339119,00002.878850,00002.557820,-00000.357013,-00000.092461,-00000.566036,-00000.002860,-00000.170829,-00000.005094
0000000000811,00002.746733,00002.294321,00002.318583,00003.082350,00002.916210,00003.007766,00002.844784,00003.339007,00002.878900,00002.557771,-00000.357348,-00000.092489,-00000.566031,-00000.002972,-00000.170843,-00000.005465
0000000000812,00002.746697,00002.294656,00002.318514,00003.082462,00002.915938,00003.007958,00002.844726,00003.338893,00002.878861,00002.558042,-00000.357618,-00000.092861,-00000.566034,-00000.003161,-00000.171185,-00000.005788
0000000000813,00002.746799,00002.294544,00002.318463,00003.082575,00002.915744,00003.008198,00002.844781,00003.338797,00002.878903,00002.558000,-00000.357541,-00000.093247,-00000.566030,-00000.003256,-00000.171559,-00000.005741
0000000000814,00002.747131,00002.294466,00002.318404,00003.082670,00002.915513,00003.008361,00002.844732,00003.339063,00002.878870,00002.558231,-00000.357771,-00000.093564,-00000.566033,-00000.003416,-00000.172214,-00000.005653
0000000000815,00002.747217,00002.294008,00002.318724,00003.082766,00002.916074,00003.008565,00002.844779,00003.339707,00002.878906,00002.558921,-00000.358068,-00000.093893,-00000.566030,-00000.003497,-00000.172895,-00000.005613
0000000000816,00002.746774,00002.293941,00002.318673,00003.082848,00002.915876,00003.008341,00002.844737,00003.339571,00002.879240,00002.558754,-00000.358264,-00000.094163,-00000.566032,-00000.003634,-00000.173452,-00000.005538
0000000000817,00002.746848,00002.293551,00002.318946,00003.082929,00002.915991,00003.008515,00002.844777,00003.339757,00002.879271,00002.558979,-00000.358517,-00000.094443,-00000.566029,-00000.003703,-00000.173670,-00000.005504
0000000000818,00002.746471,00002.293495,00002.318903,00003.082998,00002.916186,00003.008325,00002.845104,00003.339640,00002.879556,00002.559200,-00000.358683,-00000.094673,-00000.566031,-00000.003819,-00000.174144,-00000.005440
0000000000819,00002.746534,00002.293888,00002.318772,00003.083431,00002.916284,00003.008473,00002.845501,00003.339436,00002.879945,00002.559391,-00000.358899,-00000.094911,-00000.566028,-00000.003878,-00000.174692,-00000.005411
0000000000820,00002.746576,00002.293477,00002.318735,00003.083127,00002.916449,00003.008673,00002.845054,00003.339699,00002.879462,00002.559580,-00000.359041,-00000.094744,-00000.566030,-00000.003977,-00000.175095,-00000.005357
0000000000821,00002.746629,00002.293450,00002.318624,00003.083495,00002.916170,00003.008799,00002.845029,00003.339888,00002.879430,00002.559380,-00000.359224,-00000.094584,-00000.566028,-00000.004027,-00000.175562,-00000.005332
0000000000822,00002.746665,00002.293463,00002.318593,00003.083962,00002.915948,00003.008970,00002.845011,00003.339750,00002.879744,00002.559177,-00000.359345,-00000.094442,-00000.566029,-00000.004111,-00000.175905,-00000.005286
0000000000823,00002.746710,00002.293076,00002.318498,00003.083550,00002.915710,00003.009077,00002.844627,00003.339910,00002.879717,00002.559007,-00000.359500,-00000.094305,-00000.566028,-00000.004154,-00000.176302,-00000.005265
0000000000824,00002.746741,00002.293087,00002.318834,00003.083584,00002.915884,00003.009223,00002.844612,00003.340155,00002.879259,00002.559197,-00000.359241,-00000.094184,-00000.566392,-00000.004225,-00000.176958,-00000.005225
0000000000825,00002.746417,00002.293121,00002.318753,00003.083233,00002.916044,00003.008951,00002.845010,00003.339929,00002.879236,00002.559053,-00000.359011,-00000.094068,-00000.566753,-00000.004262,-00000.177296,-00000.005207
0000000000826,00002.746442,00002.292768,00002.318677,00003.082900,00002.916193,00003.008712,00002.844997,00003.339775,00002.878846,00002.558852,-00000.358427,-00000.093965,-00000.566700,-00000.004323,-00000.177853,-00000.005174
0000000000827,00002.746167,00002.292797,00002.318608,00003.082601,00002.916329,00003.008481,00002.844974,00003.339945,00002.878827,00002.559091,-00000.358231,-00000.093866,-00000.566645,-00000.004353,-00000.178141,-00000.005521
0000000000828,00002.745826,00002.292859,00002.318180,00003.082680,00002.916455,00003.008641,00002.844963,00003.339814,00002.879220,00002.558920,-00000.357733,-00000.093779,-00000.566600,-00000.004405,-00000.178253,-00000.005856
0000000000829,00002.745591,00002.293246,00002.318121,00003.082426,00002.916571,00003.008444,00002.845305,00003.339596,00002.879204,00002.558761,-00000.357567,-00000.093695,-00000.566553,-00000.004432,-00000.178498,-00000.006152
0000000000830,00002.745664,00002.293299,00002.318120,00003.082493,00002.916316,00003.008579,00002.844933,00003.339847,00002.879176,00002.558616,-00000.357506,-00000.093257,-00000.566514,-00000.004476,-00000.178594,-00000.006436
0000000000831,00002.745826,00002.293266,00002.318070,00003.082277,00002.916415,00003.008412,00002.844500,00003.340025,00002.878799,00002.558843,-00000.357364,-00000.093186,-00000.566474,-00000.004498,-00000.178439,-00000.006688
0000000000832,00002.745525,00002.293311,00002.318069,00003.081971,00002.916560,00003.007802,00002.844908,00003.339875,00002.878413,00002.558720,-00000.356950,-00000.092813,-00000.566442,-00000.004173,-00000.178521,-00000.006930
0000000000833,00002.745664,00002.293283,00002.318026,00003.082150,00002.916281,00003.008022,00002.844902,00003.340026,00002.878454,00002.558913,-00000.356466,-00000.092389,-00000.566407,-00000.003829,-00000.178752,-00000.007145
0000000000834,00002.745771,00002.293321,00002.318025,00003.081890,00002.916042,00003.007865,00002.844524,00003.340262,00002.878126,00002.558808,-00000.356114,-00000.092072,-00000.566380,-00000.003553,-00000.178459,-00000.007351
0000000000835,00002.745889,00002.293297,00002.318352,00003.081679,00002.916168,00003.007690,00002.844882,00003.340391,00002.878161,00002.558973,-00000.355702,-00000.091712,-00000.566351,-00000.003623,-00000.178656,-00000.007533
0000000000836,00002.745979,00002.293329,00002.318351,00003.081457,00002.916327,00003.007557,00002.844923,00003.340229,00002.878244,00002.559246,-00000.355765,-00000.091805,-00000.566327,-00000.003750,-00000.178406,-00000.008072
0000000000837,00002.746080,00002.293309,00002.318266,00003.082003,00002.916071,00003.007770,00002.844864,00003.339976,00002.878274,00002.559023,-00000.355414,-00000.091498,-00000.566302,-00000.003447,-00000.178573,-00000.008227
0000000000838,00002.746157,00002.293337,00002.318266,00003.082178,00002.915844,00003.008020,00002.844899,00003.340200,00002.878345,00002.558893,-00000.355105,-00000.091214,-00000.566282,-00000.003192,-00000.178723,-00000.008323
0000000000839,00002.746243,00002.293319,00002.318193,00003.081917,00002.915989,00003.007839,00002.844850,00003.340348,00002.878008,00002.558704,-00000.355169,-00000.090952,-00000.565898,-00000.003297,-00000.178503,-00000.008455
0000000000840,00002.745946,00002.293343,00002.318193,00003.081340,00002.916159,00003.007688,00002.844880,00003.340176,00002.878068,00002.558593,-00000.355268,-00000.090711,-00000.565518,-00000.003443,-00000.178631,-00000.008536
0000000000841,00002.746381,00002.293328,00002.318131,00003.081481,00002.915919,00003.007897,00002.844837,00003.339939,00002.878144,00002.558431,-00000.355323,-00000.090851,-00000.565192,-00000.003532,-00000.178807,-00000.009012
0000000000842,00002.746491,00002.293711,00002.318131,00003.081715,00002.916063,00003.007769,00002.844863,00003.339430,00002.878195,00002.558337,-00000.355408,-00000.091008,-00000.565231,-00000.003657,-00000.178915,-00000.009081
0000000000843,00002.746137,00002.293698,00002.318079,00003.081109,00002.916222,00003.007221,00002.844826,00003.339228,00002.878260,00002.558200,-00000.355454,-00000.091128,-00000.565316,-00000.003733,-00000.179065,-00000.008760
0000000000844,00002.746230,00002.293662,00002.317715,00003.081309,00002.915982,00003.007474,00002.844485,00003.339158,00002.878303,00002.558119,-00000.355164,-00000.091261,-00000.564986,-00000.003476,-00000.179157,-00000.008456
0000000000845,00002.746654,00002.293651,00002.317671,00003.081519,00002.915755,00003.007733,00002.844092,00003.339348,00002.878358,00002.558002,-00000.354841,-00000.091363,-00000.565058,-00000.003178,-00000.179647,-00000.008183
0000000000846,00002.746371,00002.293619,00002.317724,00003.081326,00002.915913,00003.007587,00002.844164,00003.339288,00002.878395,00002.557934,-00000.354956,-00000.091477,-00000.565141,-00000.002959,-00000.180089,-00000.007924
0000000000847,00002.746368,00002.293248,00002.317687,00003.081142,00002.916083,00003.007444,00002.844192,00003.339451,00002.878079,00002.558197,-00000.355044,-00000.091564,-00000.565202,-00000.002705,-00000.180143,-00000.007692
0000000000848,00002.746490,00002.293221,00002.317732,00003.081340,00002.916217,00003.007319,00002.844616,00003.339400,00002.878473,00002.558139,-00000.355142,-00000.091661,-00000.565272,-00000.002519,-00000.180156,-00000.007472
0000000000849,00002.746488,00002.293267,00002.317700,00003.081546,00002.915999,00003.007561,00002.844277,00003.339538,00002.878567,00002.558000,-00000.355216,-00000.091734,-00000.565325,-00000.002303,-00000.179840,-00000.007274
0000000000850,00002.746592,00002.292882,00002.317739,00003.081715,00002.915751,00003.007818,00002.843913,00003.339857,00002.878177,00002.557951,-00000.355300,-00000.091817,-00000.565021,-00000.002144,-00000.179851,-00000.006723
0000000000851,00002.746590,00002.292921,00002.317711,00003.081891,00002.915927,00003.007661,00002.843987,00003.339975,00002.878257,00002.558196,-00000.355363,-00000.091879,-00000.564703,-00000.001598,-00000.179944,-00000.005829
0000000000852,00002.747041,00002.292955,00002.317744,00003.082397,00002.915716,00003.008242,00002.844040,00003.340247,00002.878288,00002.558516,-00000.355434,-00000.091950,-00000.564808,-00000.001100,-00000.180679,-00000.004635
0000000000853,00002.747040,00002.292626,00002.317721,00003.082184,00002.915504,00003.008471,00002.843740,00003.340347,00002.877993,00002.558362,-00000.355489,-00000.091640,-00000.564537,-00000.000634,-00000.181122,-00000.003511
0000000000854,00002.747061,00002.292656,00002.317749,00003.081889,00002.916050,00003.008240,00002.843785,00003.340579,00002.878020,00002.558635,-00000.355186,-00000.091337,-00000.564263,-00000.000211,-00000.181385,-00000.002495
0000000000855,00002.746697,00002.292738,00002.317729,00003.081708,00002.916231,00003.007709,00002.843892,00003.340301,00002.878131,00002.558503,-00000.354870,-00000.091074,-00000.564033,00000.000185,-00000.181761,-00000.001538
0000000000856,00002.746715,00002.292400,00002.317753,00003.081457,00002.916333,00003.007513,00002.843931,00003.340498,00002.878154,00002.558735,-00000.354250,-00000.091179,-00000.563800,00000.000546,-00000.181622,-00000.000673
0000000000857,00002.746405,00002.292470,00002.317736,00003.081303,00002.916488,00003.007424,00002.844022,00003.340262,00002.878249,00002.558261,-00000.353617,-00000.091317,-00000.563603,00000.000883,-00000.181580,00000.000505
0000000000858,00002.746058,00002.292546,00002.317394,00003.081452,00002.916212,00003.007619,00002.844055,00003.339704,00002.878268,00002.557733,-00000.353089,-00000.091044,-00000.563768,00000.001191,-00000.181462,00000.001604
0000000000859,00002.745794,00002.292605,00002.317379,00003.081320,00002.916344,00003.007181,00002.844133,00003.339503,00002.877986,00002.557692,-00000.352551,-00000.090799,-00000.563601,00000.001478,-00000.181426,00000.002606
0000000000860,00002.745861,00002.292670,00002.317451,00003.081448,00002.916472,00003.006984,00002.844523,00003.339391,00002.878365,00002.557605,-00000.352101,-00000.090566,-00000.563741,00000.001739,-00000.181325,00000.003542
0000000000861,00002.745637,00002.292720,00002.317438,00003.081336,00002.916584,00003.006974,00002.844590,00003.339220,00002.878488,00002.557570,-00000.351280,-00000.090358,-00000.563599,00000.001984,-00000.181294,00000.004033
0000000000862,00002.745694,00002.292412,00002.317499,00003.081081,00002.916693,00003.006807,00002.844559,00003.339124,00002.878085,00002.557496,-00000.350535,-00000.090160,-00000.563355,00000.002206,-00000.181209,00000.004104
0000000000863,00002.745865,00002.292818,00002.317489,00003.081348,00002.916788,00003.006435,00002.844616,00003.338978,00002.878190,00002.557829,-00000.349836,-00000.089982,-00000.563234,00000.002051,-00000.181183,00000.003433
0000000000864,00002.746277,00002.292919,00002.317540,00003.081495,00002.916881,00003.006656,00002.844227,00003.339260,00002.878210,00002.558129,-00000.349201,-00000.090176,-00000.563026,00000.001878,-00000.181110,00000.002405
0000000000865,00002.746060,00002.292902,00002.317169,00003.081359,00002.916600,00003.006339,00002.844275,00003.338773,00002.878299,00002.558050,-00000.348606,-00000.090025,-00000.563286,00000.001746,-00000.180725,00000.001471
0000000000866,00002.746048,00002.292624,00002.317213,00003.081484,00002.916316,00003.006527,00002.844307,00003.339013,00002.878316,00002.557942,-00000.348066,-00000.089828,-00000.563110,00000.001599,-00000.180300,00000.000597
0000000000867,00002.745863,00002.293335,00002.317259,00003.081732,00002.916439,00003.006620,00002.844348,00003.338961,00002.878391,00002.557875,-00000.347560,-00000.089699,-00000.562968,00000.001487,-00000.179972,-00000.000199
0000000000868,00002.745852,00002.293825,00002.317296,00003.081475,00002.916560,00003.006417,00002.844375,00003.339165,00002.878043,00002.557783,-00000.346737,-00000.089531,-00000.562818,00000.001361,-00000.179247,-00000.000943
0000000000869,00002.746421,00002.294067,00002.316973,00003.081686,00002.916302,00003.006860,00002.844047,00003.339121,00002.878108,00002.557726,-00000.345943,-00000.089421,-00000.562697,00000.001266,-00000.178606,-00000.001620
0000000000870,00002.746412,00002.294121,00002.317005,00003.081830,00002.916042,00003.007049,00002.843708,00003.339295,00002.877811,00002.557648,-00000.345243,-00000.089641,-00000.562932,00000.001159,-00000.177626,-00000.001891
0000000000871,00002.746533,00002.294328,00002.317092,00003.081647,00002.916185,00003.007063,00002.843791,00003.339257,00002.877503,00002.557599,-00000.344204,-00000.089548,-00000.562829,00000.001077,-00000.176717,-00000.001742
0000000000872,00002.746162,00002.294736,00002.316757,00003.082132,00002.915964,00003.006862,00002.843865,00003.339043,00002.877613,00002.557170,-00000.343608,-00000.089372,-00000.562666,00000.000986,-00000.175883,-00000.001247
0000000000873,00002.746266,00002.294912,00002.316831,00003.082339,00002.915723,00003.007237,00002.843573,00003.339373,00002.877714,00002.557491,-00000.342723,-00000.089292,-00000.562579,00000.001280,-00000.175109,-00000.000395
0000000000874,00002.746676,00002.295260,00002.316908,00003.082389,00002.915535,00003.007428,00002.843636,00003.339553,00002.877808,00002.557489,-00000.341490,-00000.089143,-00000.562440,00000.001202,-00000.174036,00000.000389
0000000000875,00002.746764,00002.295047,00002.316972,00003.082565,00002.915330,00003.007747,00002.843751,00003.339835,00002.877531,00002.557399,-00000.340375,-00000.089075,-00000.562366,00000.001452,-00000.172652,00000.000752
0000000000876,00002.746750,00002.294980,00002.317037,00003.082971,00002.915170,00003.007910,00002.843804,00003.339625,00002.877611,00002.557397,-00000.339325,-00000.088948,-00000.562248,00000.001749,-00000.171376,00000.001057
0000000000877,00002.746462,00002.294799,00002.316729,00003.083121,00002.914995,00003.007819,00002.843901,00003.339502,00002.877738,00002.557321,-00000.338012,-00000.088527,-00000.562184,00000.001962,-00000.169834,00000.001366
0000000000878,00002.746088,00002.294742,00002.316422,00003.083104,00002.914859,00003.007595,00002.843947,00003.339324,00002.877806,00002.557319,-00000.336756,-00000.088056,-00000.562084,00000.002578,-00000.168385,00000.001625
0000000000879,00002.746205,00002.294588,00002.316884,00003.083231,00002.915073,00003.007880,00002.844030,00003.339582,00002.877551,00002.557617,-00000.335639,-00000.087698,-00000.561667,00000.003121,-00000.167073,00000.001889
0000000000880,00002.745886,00002.294902,00002.316623,00003.083579,00002.914957,00003.007689,00002.844431,00003.339430,00002.877609,00002.557616,-00000.334569,-00000.087297,-00000.561582,00000.003283,-00000.165477,00000.002109
0000000000881,00002.745987,00002.294771,00002.316654,00003.083325,00002.914777,00003.007569,00002.844139,00003.339650,00002.877392,00002.557507,-00000.333618,-00000.086993,-00000.561227,00000.003746,-00000.164360,00000.003059
0000000000882,00002.746078,00002.295038,00002.316795,00003.082896,00002.915041,00003.007407,00002.844481,00003.339520,00002.877441,00002.557505,-00000.332345,-00000.086651,-00000.560791,00000.003883,-00000.162638,00000.004335
0000000000883,00002.746163,00002.295289,00002.316821,00003.082679,00002.915613,00003.007305,00002.844595,00003.339345,00002.877620,00002.557775,-00000.331172,-00000.086392,-00000.560489,00000.004277,-00000.160962,00000.005506
0000000000884,00002.746241,00002.295517,00002.316578,00003.083039,00002.915837,00003.007529,00002.844523,00003.339234,00002.877662,00002.557774,-00000.330088,-00000.086101,-00000.560118,00000.004757,-00000.159496,00000.006593
0000000000885,00002.746314,00002.295368,00002.316963,00003.083218,00002.915599,00003.007805,00002.844258,00003.339448,00002.877450,00002.557641,-00000.329090,-00000.085880,-00000.560224,00000.005092,-00000.158069,00000.007590
0000000000886,00002.746380,00002.295199,00002.317119,00003.082799,00002.915790,00003.007633,00002.844197,00003.339717,00002.877486,00002.558003,-00000.327804,-00000.085633,-00000.559908,00000.005863,-00000.156458,00000.008515
0000000000887,00002.746079,00002.295435,00002.317084,00003.082951,00002.915949,00003.007505,00002.844696,00003.339535,00002.877669,00002.557890,-00000.326592,-00000.085082,-00000.559998,00000.006149,-00000.155606,00000.009726
0000000000888,00002.746135,00002.295291,00002.317217,00003.082957,00002.916112,00003.007359,00002.844644,00003.339402,00002.877700,00002.557835,-00000.325134,-00000.084509,-00000.559730,00000.006805,-00000.154597,00000.010514
0000000000889,00002.746242,00002.295492,00002.316824,00003.083087,00002.915885,00003.007613,00002.844706,00003.339247,00002.877856,00002.558101,-00000.324102,-00000.084040,-00000.559081,00000.007774,-00000.153509,00000.011182
0000000000890,00002.746290,00002.296095,00002.316937,00003.083454,00002.915661,00003.008214,00002.844662,00003.339496,00002.877881,00002.558417,-00000.323224,-00000.083914,-00000.558852,00000.008333,-00000.153376,00000.011853
0000000000891,00002.746381,00002.296629,00002.316603,00003.083927,00002.915468,00003.008430,00002.844352,00003.339365,00002.878014,00002.558281,-00000.322346,-00000.083878,-00000.558662,00000.009158,-00000.153538,00000.012422
0000000000892,00002.746421,00002.297142,00002.316699,00003.083878,00002.915640,00003.008216,00002.844677,00003.339214,00002.878036,00002.558551,-00000.321598,-00000.083408,-00000.558467,00000.009996,-00000.153788,00000.012993
0000000000893,00002.746136,00002.297597,00002.316415,00003.083918,00002.915476,00003.008038,00002.844414,00003.339102,00002.878149,00002.558072,-00000.320850,-00000.083015,-00000.557943,00000.011061,-00000.154289,00000.013477
0000000000894,00002.746171,00002.298034,00002.316496,00003.083513,00002.915259,00003.008218,00002.843965,00003.339336,00002.877805,00002.557938,-00000.320577,-00000.082978,-00000.557777,00000.012138,-00000.155590,00000.013963
0000000000895,00002.746290,00002.298421,00002.316617,00003.083184,00002.915482,00003.008429,00002.844103,00003.339967,00002.877538,00002.558257,-00000.320666,-00000.083005,-00000.557694,00000.013044,-00000.157104,00000.014013
0000000000896,00002.745957,00002.299156,00002.316324,00003.083202,00002.915660,00003.008220,00002.844084,00003.339803,00002.877971,00002.558506,-00000.320796,-00000.082974,-00000.557190,00000.014324,-00000.158937,00000.014063
0000000000897,00002.745696,00002.299485,00002.316064,00003.083285,00002.915487,00003.008399,00002.843839,00003.339614,00002.878107,00002.558414,-00000.320871,-00000.082997,-00000.557119,00000.015095,-00000.161315,00000.014106
0000000000898,00002.746138,00002.299748,00002.315814,00003.083300,00002.915277,00003.008584,00002.843460,00003.339838,00002.878113,00002.558263,-00000.321345,-00000.082971,-00000.557052,00000.015822,-00000.163238,00000.013786
0000000000899,00002.746279,00002.300028,00002.315956,00003.083371,00002.915492,00003.009100,00002.843614,00003.340403,00002.878228,00002.558185,-00000.321409,-00000.082991,-00000.556992,00000.016479,-00000.164537,00000.013459
0000000000900,00002.745930,00002.300615,00002.315743,00003.083384,00002.915313,00003.008894,00002.843654,00003.340231,00002.878233,00002.558056,-00000.321450,-00000.082968,-00000.556573,00000.017460,-00000.165449,00000.013550
0000000000901,00002.746049,00002.300853,00002.315864,00003.083081,00002.915133,00003.008607,00002.843422,00003.340349,00002.877606,00002.558352,-00000.321867,-00000.082985,-00000.556521,00000.018382,-00000.166554,00000.013998
0000000000902,00002.746115,00002.300990,00002.316045,00003.082729,00002.915706,00003.008795,00002.843819,00003.340202,00002.877610,00002.558606,-00000.322627,-00000.083328,-00000.556527,00000.019217,-00000.167330,00000.014800
0000000000903,00002.745854,00002.301556,00002.315785,00003.082834,00002.915916,00003.008551,00002.844348,00003.339939,00002.877802,00002.558132,-00000.323345,-00000.083706,-00000.556483,00000.019639,-00000.167546,00000.015544
0000000000904,00002.746272,00002.302035,00002.315940,00003.082898,00002.916041,00003.008711,00002.844323,00003.340177,00002.877442,00002.557985,-00000.323630,-00000.084361,-00000.556851,00000.019987,-00000.167844,00000.016590
0000000000905,00002.746050,00002.302516,00002.315718,00003.082987,00002.915857,00003.008866,00002.844410,00003.339954,00002.877605,00002.557945,-00000.323878,-00000.084682,-00000.557177,00000.020347,-00000.167302,00000.017949
0000000000906,00002.746044,00002.302562,00002.315488,00003.083041,00002.915600,00003.009002,00002.844388,00003.339794,00002.877299,00002.557820,-00000.324120,-00000.085240,-00000.557127,00000.020643,-00000.166467,00000.019202
0000000000907,00002.745855,00002.302609,00002.315299,00003.082755,00002.915444,00003.009134,00002.844100,00003.339604,00002.877076,00002.557786,-00000.324695,-00000.085876,-00000.557404,00000.020949,-00000.165643,00000.020722
0000000000908,00002.746212,00002.303010,00002.315102,00003.082800,00002.915588,00003.009613,00002.844082,00003.339830,00002.876815,00002.557679,-00000.324900,-00000.086351,-00000.557725,00000.021201,-00000.165295,00000.022514
0000000000909,00002.746051,00002.303413,00002.314942,00003.082556,00002.915455,00003.009363,00002.844199,00003.339305,00002.876987,00002.557650,-00000.325027,-00000.086892,-00000.557960,00000.021462,-00000.164956,00000.023808
0000000000910,00002.745992,00002.303029,00002.314774,00003.081870,00002.915215,00003.009045,00002.843821,00003.339135,00002.876403,00002.557559,-00000.325202,-00000.086934,-00000.558233,00000.021677,-00000.164297,00000.024971
0000000000911,00002.746218,00002.302647,00002.314638,00003.081662,00002.915102,00003.009194,00002.843557,00003.339414,00002.875824,00002.557897,-00000.325310,-00000.087395,-00000.558434,00000.021898,-00000.163646,00000.026435
0000000000912,00002.745805,00002.302320,00002.314495,00003.081078,00002.915260,00003.009286,00002.843235,00003.339632,00002.875326,00002.557820,-00000.325459,-00000.087793,-00000.558666,00000.022081,-00000.163085,00000.027788
0000000000913,00002.745635,00002.302357,00002.314379,00003.080901,00002.915526,00003.009051,00002.843374,00003.339507,00002.875559,00002.557745,-00000.325550,-00000.088185,-00000.558837,00000.022270,-00000.163256,00000.029397
0000000000914,00002.745646,00002.302078,00002.314257,00003.080766,00002.915299,00003.009129,00002.843100,00003.339693,00002.875498,00002.557679,-00000.325677,-00000.088524,-00000.559035,00000.022426,-00000.163867,00000.030912
0000000000915,00002.745501,00002.301747,00002.314521,00003.080253,00002.915888,00003.008929,00002.843581,00003.339586,00002.875333,00002.557615,-00000.325755,-00000.088858,-00000.559181,00000.022224,-00000.164375,00000.032282
0000000000916,00002.745148,00002.301510,00002.314418,00003.079413,00002.916057,00003.008632,00002.843711,00003.339744,00002.874919,00002.557559,-00000.325863,-00000.089147,-00000.559349,00000.021993,-00000.164895,00000.033208
0000000000917,00002.745024,00002.301591,00002.314280,00003.078976,00002.916196,00003.008462,00002.844120,00003.340016,00002.874779,00002.557505,-00000.325930,-00000.089431,-00000.559473,00000.021821,-00000.165328,00000.034012
0000000000918,00002.745086,00002.301752,00002.314192,00003.078623,00002.916340,00003.008210,00002.844230,00003.340150,00002.874426,00002.557820,-00000.325659,-00000.089677,-00000.559616,00000.021625,-00000.166134,00000.034438
0000000000919,00002.745344,00002.301458,00002.314437,00003.078251,00002.916458,00003.008064,00002.844216,00003.340382,00002.873944,00002.557774,-00000.325353,-00000.089919,-00000.559722,00000.021479,-00000.166865,00000.034759
0000000000920,00002.745034,00002.301595,00002.313999,00003.078314,00002.916217,00003.008213,00002.844310,00003.340134,00002.873643,00002.557679,-00000.325122,-00000.090128,-00000.560206,00000.021312,-00000.167914,00000.035484
0000000000921,00002.745253,00002.301345,00002.313845,00003.077997,00002.915955,00003.008452,00002.843935,00003.340331,00002.873233,00002.557277,-00000.324499,-00000.090334,-00000.560659,00000.020824,-00000.168899,00000.036121
0000000000922,00002.745353,00002.301099,00002.314198,00003.077688,00002.916114,00003.008578,00002.844015,00003.340482,00002.872977,00002.557197,-00000.324302,-00000.090512,-00000.561072,00000.020320,-00000.169791,00000.036375
0000000000923,00002.745902,00002.301249,00002.314067,00003.077781,00002.915890,00003.009144,00002.844058,00003.340650,00002.872990,00002.557217,-00000.324134,-00000.090688,-00000.561094,00000.019542,-00000.170993,00000.036554
0000000000924,00002.745623,00002.300677,00002.314004,00003.076792,00002.916025,00003.008889,00002.843764,00003.340416,00002.872773,00002.557149,-00000.323604,-00000.090476,-00000.561083,00000.019112,-00000.172116,00000.036771
0000000000925,00002.745366,00002.300804,00002.313530,00003.076508,00002.916198,00003.008646,00002.844163,00003.340196,00002.872784,00002.557166,-00000.323099,-00000.090263,-00000.561102,00000.018813,-00000.173139,00000.036923
0000000000926,00002.745129,00002.301043,00002.313114,00003.076392,00002.916313,00003.008428,00002.844275,00003.339997,00002.872961,00002.556745,-00000.322285,-00000.090083,-00000.561455,00000.018447,-00000.174094,00000.037108
0000000000927,00002.744909,00002.300788,00002.313073,00003.075788,00002.916460,00003.008221,00002.844253,00003.339810,00002.872608,00002.556397,-00000.321491,-00000.089539,-00000.561471,00000.018192,-00000.174602,00000.037600
0000000000928,00002.744707,00002.300629,00002.313082,00003.075326,00002.916557,00003.008036,00002.844348,00003.339640,00002.872397,00002.556401,-00000.320799,-00000.089385,-00000.561409,00000.018243,-00000.174690,00000.038120
0000000000929,00002.745246,00002.300412,00002.313047,00003.075537,00002.916320,00003.008222,00002.844329,00003.339843,00002.872096,00002.556105,-00000.320486,-00000.089285,-00000.561423,00000.018389,-00000.174760,00000.038539
0000000000930,00002.745437,00002.300276,00002.313054,00003.075144,00002.916403,00003.008427,00002.844410,00003.340062,00002.871916,00002.556108,-00000.320259,-00000.089154,-00000.561370,00000.018433,-00000.174472,00000.038619
0000000000931,00002.745170,00002.300455,00002.312662,00003.075324,00002.916563,00003.008223,00002.844757,00003.339872,00002.872023,00002.556219,-00000.319993,-00000.089069,-00000.561382,00000.018557,-00000.174894,00000.038976
0000000000932,00002.745333,00002.300339,00002.312668,00003.075352,00002.916634,00003.008035,00002.844463,00003.340058,00002.871869,00002.556222,-00000.319799,-00000.088958,-00000.561336,00000.018594,-00000.175375,00000.039407
0000000000933,00002.745468,00002.300491,00002.312697,00003.075143,00002.917134,00003.007861,00002.844758,00003.340260,00002.871960,00002.556316,-00000.319573,-00000.088885,-00000.560984,00000.019063,-00000.175734,00000.039711
0000000000934,00002.744881,00002.300392,00002.312339,00003.075167,00002.916831,00003.007338,00002.844871,00003.339692,00002.872192,00002.555593,-00000.319408,-00000.088790,-00000.560945,00000.019457,-00000.176143,00000.040440
0000000000935,00002.744996,00002.300159,00002.312001,00003.075351,00002.916531,00003.007553,00002.844759,00003.339864,00002.872270,00002.555674,-00000.319215,-00000.088728,-00000.560645,00000.019856,-00000.176086,00000.041061
0000000000936,00002.744859,00002.300438,00002.312059,00003.075371,00002.916636,00003.007471,00002.845218,00003.339744,00002.872830,00002.555421,-00000.319075,-00000.088285,-00000.560250,00000.020192,-00000.176435,00000.041683
0000000000937,00002.744957,00002.300602,00002.311771,00003.075528,00002.916380,00003.007654,00002.845123,00003.339527,00002.872896,00002.555126,-00000.318911,-00000.088232,-00000.559994,00000.020531,-00000.176749,00000.042211
0000000000938,00002.745204,00002.300476,00002.311821,00003.075545,00002.916470,00003.007947,00002.844788,00003.339787,00002.872648,00002.555274,-00000.319155,-00000.088217,-00000.560020,00000.020454,-00000.177046,00000.042740
0000000000939,00002.745287,00002.300253,00002.311939,00003.075316,00002.916615,00003.007739,00002.844707,00003.339966,00002.872341,00002.555023,-00000.319378,-00000.088172,-00000.560165,00000.020381,-00000.177313,00000.042828
0000000000940,00002.745497,00002.300146,00002.311981,00003.075331,00002.916328,00003.007626,00002.844422,00003.339825,00002.872130,00002.555149,-00000.319585,-00000.088160,-00000.560187,00000.020315,-00000.176840,00000.042552
0000000000941,00002.745568,00002.299594,00002.311718,00003.074773,00002.916089,00003.007450,00002.843990,00003.339613,00002.871869,00002.554936,-00000.319049,-00000.088122,-00000.560311,00000.020252,-00000.175979,00000.042264
0000000000942,00002.745746,00002.299503,00002.311392,00003.074423,00002.916208,00003.007353,00002.843747,00003.339493,00002.871688,00002.555043,-00000.318500,-00000.088474,-00000.560330,00000.020197,-00000.175214,00000.042029
0000000000943,00002.745444,00002.299395,00002.311168,00003.074673,00002.916004,00003.007203,00002.843742,00003.339314,00002.871466,00002.554861,-00000.318044,-00000.088804,-00000.560435,00000.020143,-00000.174481,00000.041784
0000000000944,00002.745959,00002.299318,00002.311253,00003.075101,00002.916105,00003.007483,00002.843536,00003.339574,00002.871313,00002.554952,-00000.317577,-00000.089104,-00000.560451,00000.020096,-00000.173467,00000.041584
0000000000945,00002.745701,00002.299226,00002.311062,00003.074951,00002.916295,00003.007355,00002.843532,00003.339421,00002.871486,00002.554797,-00000.317551,-00000.089385,-00000.560541,00000.019688,-00000.172117,00000.041375
0000000000946,00002.746139,00002.299160,00002.311134,00003.075315,00002.916018,00003.007594,00002.843719,00003.339643,00002.871356,00002.554875,-00000.317516,-00000.089640,-00000.560555,00000.019284,-00000.170891,00000.040843
0000000000947,00002.746283,00002.299445,00002.311335,00003.075914,00002.916179,00003.007848,00002.843715,00003.339513,00002.871504,00002.555106,-00000.317495,-00000.089880,-00000.560631,00000.018937,-00000.169742,00000.039576
0000000000948,00002.746293,00002.299026,00002.311396,00003.075861,00002.915944,00003.008051,00002.843511,00003.339702,00002.871393,00002.555172,-00000.317465,-00000.090097,-00000.560642,00000.018593,-00000.168698,00000.038397
0000000000949,00002.746416,00002.298906,00002.311567,00003.076370,00002.915718,00003.008268,00002.843509,00003.339954,00002.871518,00002.555369,-00000.317446,-00000.090301,-00000.560707,00000.018298,-00000.167720,00000.036956
0000000000950,00002.746787,00002.298912,00002.311619,00003.076688,00002.915881,00003.008078,00002.843698,00003.340115,00002.871424,00002.555788,-00000.317784,-00000.090849,-00000.560717,00000.018005,-00000.166832,00000.035590
0000000000951,00002.747254,00002.298809,00002.312128,00003.076759,00002.916051,00003.008262,00002.843695,00003.340329,00002.871168,00002.556318,-00000.318131,-00000.091385,-00000.560773,00000.017754,-00000.166362,00000.034363
0000000000952,00002.747208,00002.298815,00002.312172,00003.077392,00002.915827,00003.008463,00002.843857,00003.340103,00002.871450,00002.556312,-00000.318418,-00000.091488,-00000.560781,00000.017505,-00000.165968,00000.033200
0000000000953,00002.747242,00002.299453,00002.312242,00003.077815,00002.915972,00003.008257,00002.844217,00003.339923,00002.871596,00002.556401,-00000.318713,-00000.091945,-00000.560828,00000.017290,-00000.165568,00000.032156
0000000000954,00002.747566,00002.299457,00002.312280,00003.077991,00002.916144,00003.008429,00002.844355,00003.340093,00002.871473,00002.556758,-00000.318958,-00000.092396,-00000.561198,00000.017441,-00000.165596,00000.031166
0000000000955,00002.747595,00002.299638,00002.312339,00003.077989,00002.916630,00003.008253,00002.844662,00003.340303,00002.871234,00002.557196,-00000.319572,-00000.093147,-00000.561601,00000.017984,-00000.165981,00000.030277
0000000000956,00002.747507,00002.299642,00002.312009,00003.078139,00002.916776,00003.008036,00002.844778,00003.339722,00002.871492,00002.557138,-00000.320143,-00000.093894,-00000.561916,00000.018476,-00000.166730,00000.029796
0000000000957,00002.747533,00002.299433,00002.312059,00003.077774,00002.916828,00003.007887,00002.844314,00003.339538,00002.871289,00002.557148,-00000.320303,-00000.094533,-00000.562259,00000.018938,-00000.167421,00000.029765
0000000000958,00002.747458,00002.299799,00002.312141,00003.078264,00002.916952,00003.007702,00002.844414,00003.339044,00002.871509,00002.557099,-00000.320789,-00000.095169,-00000.562890,00000.018994,-00000.168058,00000.029719
0000000000959,00002.747842,00002.299621,00002.311821,00003.078679,00002.916633,00003.007938,00002.844381,00003.338886,00002.871335,00002.557107,-00000.320926,-00000.095714,-00000.563182,00000.019024,-00000.168646,00000.029693
0000000000960,00002.747779,00002.299933,00002.311890,00003.079097,00002.916739,00003.007781,00002.844829,00003.338829,00002.871523,00002.557065,-00000.321339,-00000.096255,-00000.563719,00000.019072,-00000.169189,00000.030016
0000000000961,00002.747743,00002.299418,00002.311981,00003.078724,00002.916830,00003.007618,00002.844801,00003.339058,00002.871375,00002.557073,-00000.321818,-00000.096718,-00000.563967,00000.019098,-00000.170052,00000.029994
0000000000962,00002.748052,00002.299321,00002.312040,00003.078354,00002.917283,00003.007847,00002.845182,00003.339371,00002.871535,00002.557399,-00000.321808,-00000.096816,-00000.564062,00000.019138,-00000.170877,00000.030269
0000000000963,00002.748021,00002.299246,00002.311754,00003.078763,00002.917361,00003.007709,00002.845159,00003.339203,00002.871772,00002.557406,-00000.321852,-00000.096848,-00000.564273,00000.019160,-00000.171612,00000.030250
0000000000964,00002.747921,00002.299526,00002.311805,00003.078810,00002.917383,00003.007541,00002.845483,00003.339107,00002.871545,00002.557321,-00000.321843,-00000.096931,-00000.564354,00000.019194,-00000.172315,00000.029759
0000000000965,00002.748258,00002.299462,00002.311924,00003.078795,00002.917812,00003.007424,00002.845463,00003.339327,00002.871384,00002.557689,-00000.321882,-00000.097321,-00000.564534,00000.018851,-00000.173303,00000.029380
0000000000966,00002.748173,00002.299700,00002.311604,00003.078836,00002.917832,00003.007281,00002.845739,00003.339246,00002.871553,00002.557254,-00000.321874,-00000.097392,-00000.564602,00000.018517,-00000.174264,00000.029324
0000000000967,00002.748097,00002.299646,00002.311706,00003.078460,00002.917834,00003.007181,00002.845722,00003.339070,00002.871416,00002.557205,-00000.321907,-00000.097361,-00000.564756,00000.018224,-00000.175468,00000.029364
0000000000968,00002.748387,00002.299123,00002.311796,00003.078495,00002.917488,00003.007059,00002.845231,00003.339363,00002.871198,00002.557198,-00000.322263,-00000.097422,-00000.564814,00000.017940,-00000.176649,00000.028955
0000000000969,00002.748685,00002.299076,00002.311520,00003.078901,00002.917127,00003.007337,00002.845217,00003.339214,00002.871444,00002.557156,-00000.322653,-00000.097395,-00000.564944,00000.017328,-00000.177311,00000.028626
0000000000970,00002.748933,00002.298631,00002.311597,00003.078930,00002.916832,00003.007596,00002.844799,00003.339464,00002.871258,00002.557150,-00000.322957,-00000.097810,-00000.564994,00000.017087,-00000.177953,00000.028277
0000000000971,00002.748824,00002.298592,00002.311725,00003.078913,00002.917251,00003.007470,00002.845150,00003.339699,00002.871468,00002.557114,-00000.322926,-00000.097787,-00000.565105,00000.016566,-00000.178517,00000.027634
0000000000972,00002.749034,00002.298576,00002.311790,00003.079301,00002.917362,00003.007690,00002.845157,00003.339912,00002.871672,00002.557108,-00000.322822,-00000.097777,-00000.565147,00000.016360,-00000.179427,00000.026975
0000000000973,00002.749304,00002.298542,00002.311899,00003.078923,00002.917356,00003.007945,00002.844730,00003.340112,00002.871488,00002.557441,-00000.322796,-00000.097758,-00000.565242,00000.015916,-00000.180269,00000.026427
0000000000974,00002.749120,00002.298891,00002.311592,00003.078891,00002.917814,00003.007770,00002.845099,00003.339930,00002.871662,00002.557436,-00000.323070,-00000.098112,-00000.565278,00000.015378,-00000.181044,00000.025866
0000000000975,00002.749350,00002.298863,00002.311322,00003.079295,00002.917445,00003.007988,00002.845098,00003.339738,00002.871505,00002.557356,-00000.323048,-00000.098459,-00000.565359,00000.015001,-00000.181761,00000.025400
0000000000976,00002.749194,00002.298797,00002.311061,00003.079267,00002.917110,00003.007839,00002.845049,00003.339584,00002.871653,00002.556990,-00000.322918,-00000.098760,-00000.565752,00000.014180,-00000.182420,00000.024922
0000000000977,00002.749027,00002.298773,00002.310831,00003.079249,00002.917159,00003.007661,00002.845411,00003.339420,00002.871882,00002.556922,-00000.323262,-00000.099055,-00000.566183,00000.013496,-00000.183031,00000.024525
0000000000978,00002.749256,00002.298354,00002.310971,00003.079225,00002.917236,00003.007897,00002.845370,00003.339651,00002.871646,00002.557335,-00000.323514,-00000.099312,-00000.566155,00000.012797,-00000.183592,00000.024118
0000000000979,00002.749114,00002.298696,00002.310775,00003.079209,00002.917278,00003.007745,00002.845678,00003.339512,00002.871841,00002.557277,-00000.324170,-00000.099563,-00000.566523,00000.012214,-00000.184475,00000.023781
0000000000980,00002.749672,00002.298703,00002.310894,00003.079189,00002.917343,00003.007946,00002.845643,00003.339709,00002.872002,00002.557629,-00000.324747,-00000.099781,-00000.566862,00000.011620,-00000.185316,00000.023434
0000000000981,00002.749551,00002.298994,00002.311090,00003.079175,00002.917742,00003.007817,00002.845905,00003.339953,00002.872168,00002.557943,-00000.324943,-00000.099995,-00000.567174,00000.011124,-00000.186067,00000.023147
0000000000982,00002.749301,00002.298999,00002.310829,00003.078795,00002.917797,00003.007626,00002.845875,00003.339757,00002.871943,00002.557880,-00000.325435,-00000.100181,-00000.567463,00000.010617,-00000.186783,00000.022852
0000000000983,00002.749561,00002.298885,00002.310996,00003.078784,00002.917774,00003.007879,00002.845373,00003.340328,00002.872084,00002.558146,-00000.325964,-00000.100363,-00000.567729,00000.010195,-00000.187060,00000.022607
0000000000984,00002.749348,00002.298889,00002.310774,00003.078460,00002.917821,00003.007715,00002.845347,00003.340162,00002.871892,00002.558093,-00000.326382,-00000.100522,-00000.568337,00000.009764,-00000.187306,00000.022356
0000000000985,00002.749569,00002.298429,00002.310916,00003.077725,00002.917801,00003.007568,00002.844920,00003.339922,00002.871650,00002.557957,-00000.326833,-00000.101039,-00000.568564,00000.009405,-00000.187542,00000.022148
0000000000986,00002.749750,00002.298433,00002.310727,00003.078175,00002.917479,00003.007792,00002.844898,00003.339781,00002.871849,00002.557911,-00000.327189,-00000.101174,-00000.568719,00000.009038,-00000.187751,00000.021934
0000000000987,00002.749938,00002.298403,00002.310485,00003.078275,00002.917099,00003.008029,00002.844897,00003.339577,00002.871643,00002.557796,-00000.327935,-00000.101252,-00000.568549,00000.009095,-00000.187589,00000.021757
0000000000988,00002.749730,00002.298407,00002.310324,00003.077933,00002.917187,00003.007857,00002.844878,00003.339456,00002.871812,00002.557757,-00000.328601,-00000.101367,-00000.568319,00000.009145,-00000.187405,00000.021575
0000000000989,00002.749527,00002.298382,00002.310118,00003.077655,00002.917227,00003.007696,00002.844877,00003.339282,00002.872000,00002.557296,-00000.329237,-00000.101070,-00000.567811,00000.009556,-00000.187267,00000.021787
0000000000990,00002.748987,00002.298385,00002.309981,00003.077363,00002.917302,00003.007550,00002.845224,00003.339180,00002.872144,00002.557263,-00000.329804,-00000.100805,-00000.566889,00000.009962,-00000.187473,00000.021632
0000000000991,00002.748815,00002.298363,00002.309806,00003.077126,00002.917336,00003.007413,00002.845223,00003.339032,00002.871941,00002.557233,-00000.330345,-00000.100190,-00000.566094,00000.010312,-00000.187718,00000.021812
0000000000992,00002.748718,00002.298003,00002.310052,00003.076878,00002.917762,00003.007651,00002.845156,00003.339670,00002.871701,00002.557568,-00000.330827,-00000.099602,-00000.565310,00000.011020,-00000.188256,00000.022043
0000000000993,00002.748571,00002.297622,00002.310265,00003.076677,00002.917791,00003.007897,00002.844792,00003.339907,00002.871527,00002.557542,-00000.331288,-00000.099441,-00000.564633,00000.011681,-00000.188828,00000.022197
0000000000994,00002.748125,00002.297678,00002.310112,00003.076466,00002.917792,00003.007737,00002.845098,00003.339725,00002.871686,00002.557102,-00000.331699,-00000.099303,-00000.563965,00000.012284,-00000.188923,00000.022030
0000000000995,00002.748000,00002.297354,00002.310294,00003.076294,00002.917816,00003.007946,00002.844788,00003.339926,00002.871539,00002.557080,-00000.332091,-00000.099166,-00000.563389,00000.012484,-00000.189047,00000.022161
0000000000996,00002.747984,00002.297402,00002.310163,00003.076114,00002.918179,00003.007810,00002.844686,00003.340134,00002.871311,00002.557430,-00000.332441,-00000.099048,-00000.562820,00000.012634,-00000.189128,00000.022382
0000000000997,00002.747878,00002.297488,00002.310318,00003.075968,00002.918200,00003.007626,00002.844785,00003.340306,00002.871185,00002.557775,-00000.332774,-00000.098931,-00000.562693,00000.013167,-00000.189234,00000.022131
0000000000998,00002.747501,00002.297529,00002.310207,00003.076178,00002.917783,00003.007510,00002.844697,00003.339757,00002.871354,00002.557348,-00000.333072,-00000.098831,-00000.562571,00000.013658,-00000.189303,00000.021957
0000000000999,00002.747410,00002.297240,00002.310339,00003.076054,00002.917801,00003.007715,00002.844782,00003.339903,00002.871247,00002.557278,-00000.332993,-00000.098732,-00000.562100,00000.014111,-00000.189392,00000.021742
0000000001000,00002.747815,00002.297275,00002.310607,00003.076232,00002.917809,00003.007979,00002.844708,00003.340161,00002.871028,00002.557640,-00000.332884,-00000.098647,-00000.561634,00000.014166,-00000.189451,00000.021594
0000000001001,00002.747738,00002.297391,00002.310356,00003.076489,00002.917462,00003.008155,00002.844780,00003.339923,00002.871300,00002.557581,-00000.332817,-00000.098562,-00000.561595,00000.014190,-00000.189528,00000.021412
0000000001002,00002.747357,00002.297784,00002.310585,00003.076641,00002.917469,00003.008379,00002.845079,00003.339780,00002.871477,00002.557526,-00000.333087,-00000.098853,-00000.561561,00000.014237,-00000.189578,00000.021285
0000000001003,00002.747292,00002.297520,00002.310734,00003.076497,00002.917173,00003.008529,00002.845140,00003.339940,00002.871345,00002.557475,-00000.333393,-00000.099143,-00000.561528,00000.014256,-00000.190006,00000.021130
0000000001004,00002.747330,00002.297491,00002.310566,00003.076990,00002.917179,00003.008720,00002.845032,00003.339818,00002.871495,00002.557429,-00000.333622,-00000.099390,-00000.561499,00000.014296,-00000.190411,00000.021022
0000000001005,00002.747274,00002.297630,00002.310693,00003.077230,00002.916927,00003.008847,00002.844722,00003.339955,00002.871384,00002.557386,-00000.334245,-00000.099638,-00000.561834,00000.013950,-00000.190775,00000.020890
0000000001006,00002.747307,00002.297605,00002.310549,00003.077286,00002.916569,00003.009010,00002.844630,00003.339851,00002.871511,00002.556983,-00000.334804,-00000.099848,-00000.562172,00000.013622,-00000.191120,00000.020799
0000000001007,00002.747622,00002.297723,00002.310658,00003.077490,00002.916717,00003.009118,00002.844728,00003.339967,00002.871416,00002.556947,-00000.335334,-00000.100059,-00000.562457,00000.013327,-00000.191430,00000.020686
0000000001008,00002.747650,00002.298065,00002.310536,00003.077538,00002.916776,00003.009257,00002.844650,00003.339879,00002.871525,00002.556604,-00000.335809,-00000.100238,-00000.562745,00000.013047,-00000.191724,00000.020608
0000000001009,00002.747556,00002.298166,00002.310265,00003.077712,00002.916902,00003.008986,00002.845096,00003.339615,00002.871807,00002.556573,-00000.336261,-00000.100418,-00000.562988,00000.012797,-00000.191988,00000.020513
0000000001010,00002.747579,00002.298094,00002.310161,00003.077390,00002.916952,00003.008741,00002.845030,00003.339540,00002.871537,00002.556644,-00000.336666,-00000.100570,-00000.563233,00000.012558,-00000.192238,00000.020446
0000000001011,00002.747499,00002.298179,00002.309931,00003.077176,00002.917059,00003.008511,00002.845410,00003.339315,00002.871776,00002.556618,-00000.336687,-00000.100723,-00000.563802,00000.012345,-00000.192100,00000.020365
0000000001012,00002.747519,00002.297756,00002.309842,00003.076901,00002.916738,00003.008302,00002.844991,00003.339251,00002.871184,00002.556678,-00000.336669,-00000.100853,-00000.564011,00000.012142,-00000.191950,00000.020308
0000000001013,00002.747451,00002.297466,00002.309646,00003.076719,00002.916830,00003.008106,00002.844951,00003.339059,00002.871025,00002.556656,-00000.336324,-00000.100620,-00000.564133,00000.011960,-00000.191833,00000.020239
0000000001014,00002.747831,00002.297467,00002.309571,00003.076848,00002.916557,00003.008291,00002.844957,00003.339005,00002.871246,00002.556707,-00000.336309,-00000.100730,-00000.564311,00000.011788,-00000.192068,00000.020191
0000000001015,00002.747773,00002.297221,00002.309404,00003.077055,00002.916635,00003.008124,00002.845286,00003.338842,00002.871474,00002.556688,-00000.336378,-00000.100895,-00000.564414,00000.011996,-00000.191968,00000.020132
0000000001016,00002.747370,00002.297222,00002.309340,00003.076803,00002.916765,00003.007919,00002.845291,00003.338796,00002.871662,00002.556369,-00000.336365,-00000.100989,-00000.564566,00000.011849,-00000.191805,00000.020091
0000000001017,00002.747321,00002.297375,00002.309561,00003.076979,00002.917194,00003.007777,00002.845572,00003.339020,00002.871493,00002.556353,-00000.336062,-00000.101129,-00000.564291,00000.012026,-00000.191357,00000.020040
0000000001018,00002.746979,00002.297376,00002.309506,00003.076764,00002.917306,00003.007603,00002.845576,00003.338618,00002.871290,00002.556444,-00000.335687,-00000.101209,-00000.564420,00000.012264,-00000.191219,00000.020006
0000000001019,00002.747299,00002.297506,00002.309694,00003.076914,00002.916945,00003.007844,00002.845452,00003.338808,00002.871146,00002.556430,-00000.335066,-00000.100966,-00000.564549,00000.012415,-00000.190837,00000.019963
0000000001020,00002.747008,00002.297507,00002.309647,00003.076731,00002.916677,00003.007696,00002.845455,00003.338829,00002.871337,00002.556145,-00000.334022,-00000.100671,-00000.564296,00000.012617,-00000.189994,00000.019933
0000000001021,00002.747281,00002.297255,00002.309445,00003.076496,00002.916370,00003.007902,00002.844987,00003.338628,00002.871214,00002.556133,-00000.333131,-00000.100464,-00000.564406,00000.012745,-00000.189307,00000.019897
0000000001022,00002.747758,00002.296893,00002.309768,00003.076340,00002.916142,00003.008138,00002.844990,00003.339008,00002.871013,00002.556253,-00000.332242,-00000.100576,-00000.564553,00000.012917,-00000.188226,00000.019871
0000000001023,00002.747628,00002.297042,00002.309595,00003.076503,00002.915881,00003.008313,00002.844954,00003.338838,00002.871272,00002.555880,-00000.331483,-00000.100762,-00000.564647,00000.013027,-00000.187278,00000.019840
0000000001024,00002.747671,00002.297459,00002.309507,00003.076371,00002.916049,00003.008152,00002.845319,00003.338799,00002.871464,00002.555983,-00000.330726,-00000.100858,-00000.564772,00000.013536,-00000.186358,00000.019819
0000000001025,00002.747560,00002.297585,00002.309360,00003.076146,00002.916553,00003.007938,00002.845289,00003.338653,00002.871321,00002.556028,-00000.330080,-00000.101016,-00000.564852,00000.013629,-00000.185188,00000.019792
0000000001026,00002.747235,00002.297578,00002.309286,00003.076033,00002.916696,00003.007800,00002.845600,00003.338620,00002.871122,00002.556115,-00000.329436,-00000.101097,-00000.564958,00000.013700,-00000.184405,00000.020137
0000000001027,00002.747140,00002.297322,00002.309161,00003.075480,00002.916762,00003.007619,00002.845574,00003.338496,00002.870637,00002.556154,-00000.328886,-00000.101232,-00000.565026,00000.014142,-00000.183409,00000.020114
0000000001028,00002.747226,00002.297316,00002.309097,00003.075384,00002.916521,00003.007864,00002.845476,00003.338468,00002.870830,00002.555865,-00000.329063,-00000.101301,-00000.565117,00000.014565,-00000.182379,00000.020045
0000000001029,00002.747145,00002.297462,00002.308991,00003.075275,00002.916577,00003.007709,00002.845816,00003.338363,00002.871144,00002.555898,-00000.329320,-00000.101416,-00000.565175,00000.014942,-00000.181531,00000.020026
0000000001030,00002.747218,00002.297456,00002.308937,00003.075193,00002.916372,00003.007919,00002.845733,00003.338339,00002.871308,00002.555652,-00000.329471,-00000.101475,-00000.565252,00000.015302,-00000.180655,00000.019604
0000000001031,00002.747512,00002.297217,00002.308846,00003.075101,00002.916419,00003.008512,00002.846023,00003.338975,00002.871575,00002.555680,-00000.329690,-00000.101573,-00000.564938,00000.015622,-00000.179570,00000.019225
0000000001032,00002.747575,00002.296850,00002.308800,00003.074668,00002.916608,00003.008328,00002.845952,00003.338954,00002.871352,00002.555834,-00000.329819,-00000.101623,-00000.564641,00000.015929,-00000.178461,00000.019228
0000000001033,00002.747825,00002.296646,00002.308723,00003.074590,00002.916285,00003.008470,00002.845473,00003.338770,00002.871216,00002.555495,-00000.330005,-00000.101707,-00000.564374,00000.016201,-00000.177538,00000.019268
0000000001034,00002.747515,00002.296334,00002.308683,00003.074221,00002.916446,00003.008313,00002.845413,00003.338752,00002.871026,00002.555625,-00000.330114,-00000.101749,-00000.564122,00000.016462,-00000.176594,00000.019271
0000000001035,00002.747728,00002.296161,00002.308618,00003.074155,00002.916171,00003.008434,00002.845368,00003.338958,00002.870911,00002.555700,-00000.330273,-00000.101820,-00000.564257,00000.016695,-00000.175808,00000.019305
0000000001036,00002.748190,00002.296257,00002.308584,00003.074204,00002.916308,00003.008663,00002.845316,00003.339306,00002.870749,00002.555811,-00000.330366,-00000.101494,-00000.564405,00000.016917,-00000.175367,00000.019308
0000000001037,00002.747646,00002.296472,00002.308166,00003.074510,00002.916437,00003.008404,00002.845278,00003.339119,00002.871014,00002.555511,-00000.330864,-00000.101554,-00000.564157,00000.017114,-00000.175061,00000.019337
0000000001038,00002.748039,00002.296192,00002.308137,00003.074552,00002.916553,00003.008599,00002.845234,00003.339415,00002.870876,00002.555606,-00000.331306,-00000.101639,-00000.563920,00000.017304,-00000.174323,00000.019339
0000000001039,00002.748302,00002.296012,00002.308144,00003.074449,00002.916300,00003.008741,00002.845202,00003.339618,00002.870739,00002.555714,-00000.331730,-00000.101690,-00000.564072,00000.017472,-00000.174062,00000.019364
0000000001040,00002.748273,00002.296136,00002.308119,00003.074485,00002.916762,00003.008544,00002.845527,00003.339508,00002.870984,00002.556157,-00000.332106,-00000.101762,-00000.564233,00000.017633,-00000.173434,00000.019366
0000000001041,00002.748134,00002.295984,00002.308125,00003.074035,00002.916910,00003.008302,00002.845500,00003.338955,00002.870867,00002.555886,-00000.332467,-00000.101806,-00000.564000,00000.017776,-00000.173212,00000.019387
0000000001042,00002.748110,00002.295726,00002.308104,00003.074065,00002.916940,00003.008497,00002.845777,00003.339224,00002.870713,00002.556264,-00000.332788,-00000.101505,-00000.563774,00000.017913,-00000.173040,00000.019389
0000000001043,00002.747991,00002.295959,00002.307746,00003.074408,00002.916703,00003.008654,00002.846116,00003.339116,00002.870976,00002.556033,-00000.333095,-00000.101179,-00000.563576,00000.018035,-00000.172851,00000.019406
0000000001044,00002.747971,00002.296103,00002.307728,00003.074434,00002.916729,00003.008457,00002.846352,00003.338982,00002.871208,00002.555629,-00000.333005,-00000.100923,-00000.563383,00000.018152,-00000.173067,00000.019771
0000000001045,00002.747870,00002.296301,00002.307786,00003.074363,00002.916527,00003.008591,00002.846278,00003.338890,00002.871070,00002.555432,-00000.332903,-00000.100646,-00000.563214,00000.018256,-00000.173269,00000.020149
0000000001046,00002.748215,00002.296060,00002.308134,00003.074385,00002.916549,00003.008424,00002.846116,00003.338776,00002.870904,00002.555451,-00000.332827,-00000.100427,-00000.563051,00000.018355,-00000.173453,00000.020096
0000000001047,00002.748129,00002.296229,00002.307821,00003.074324,00002.916377,00003.008537,00002.846053,00003.338698,00002.871149,00002.555284,-00000.332378,-00000.100191,-00000.562907,00000.018806,-00000.173262,00000.020055
0000000001048,00002.747698,00002.296387,00002.307391,00003.073980,00002.916395,00003.008395,00002.845915,00003.338601,00002.871371,00002.554937,-00000.332312,-00000.100005,-00000.562767,00000.019254,-00000.173056,00000.020010
0000000001049,00002.747987,00002.296531,00002.307487,00003.074291,00002.916249,00003.008854,00002.845862,00003.338534,00002.871216,00002.555157,-00000.332293,-00000.099805,-00000.562645,00000.019275,-00000.173256,00000.019975
0000000001050,00002.748346,00002.296665,00002.307484,00003.074361,00002.916265,00003.009096,00002.845744,00003.338814,00002.871043,00002.555225,-00000.332600,-00000.099646,-00000.562889,00000.019293,-00000.173444,00000.020300
0000000001051,00002.748229,00002.296788,00002.307566,00003.074263,00002.916866,00003.008761,00002.846061,00003.338395,00002.871274,00002.555412,-00000.332946,-00000.099475,-00000.562785,00000.019311,-00000.173614,00000.020270
0000000001052,00002.748171,00002.296902,00002.307563,00003.074323,00002.916880,00003.008967,00002.845599,00003.338633,00002.871126,00002.555470,-00000.332845,-00000.099341,-00000.562630,00000.019326,-00000.173774,00000.020546
0000000001053,00002.748435,00002.297006,00002.307270,00003.074239,00002.916666,00003.009045,00002.845506,00003.339002,00002.870960,00002.555630,-00000.332777,-00000.099195,-00000.562541,00000.019342,-00000.173919,00000.020884
0000000001054,00002.748749,00002.296741,00002.307268,00003.073927,00002.916677,00003.009220,00002.845475,00003.339205,00002.870834,00002.555679,-00000.332691,-00000.099080,-00000.562409,00000.019355,-00000.174055,00000.021482
0000000001055,00002.748973,00002.296830,00002.307381,00003.073494,00002.916858,00003.009287,00002.845396,00003.339519,00002.870693,00002.555815,-00000.332633,-00000.099319,-00000.562696,00000.019368,-00000.174178,00000.022495
0000000001056,00002.749240,00002.296967,00002.307380,00003.072865,00002.916868,00003.009436,00002.845006,00003.339692,00002.870586,00002.555856,-00000.332560,-00000.099584,-00000.562947,00000.019379,-00000.174294,00000.023004
0000000001057,00002.748706,00002.297042,00002.306750,00003.072133,00002.916659,00003.008767,00002.844576,00003.339233,00002.870465,00002.555609,-00000.331422,-00000.099788,-00000.563191,00000.019390,-00000.174036,00000.023503
0000000001058,00002.748570,00002.296796,00002.306386,00003.071961,00002.916667,00003.008893,00002.844245,00003.339380,00002.870374,00002.555645,-00000.329908,-00000.100014,-00000.563405,00000.019400,-00000.173409,00000.023937
0000000001059,00002.748478,00002.296860,00002.306213,00003.071338,00002.916852,00003.008324,00002.844605,00003.339353,00002.870272,00002.555797,-00000.328214,-00000.100912,-00000.563976,00000.019409,-00000.172464,00000.024725
0000000001060,00002.748726,00002.297013,00002.305903,00003.071191,00002.916496,00003.008432,00002.844685,00003.339115,00002.870194,00002.555465,-00000.326563,-00000.101830,-00000.564520,00000.019417,-00000.171930,00000.025819
0000000001061,00002.748284,00002.297068,00002.305393,00003.070660,00002.916654,00003.008310,00002.844628,00003.339092,00002.870470,00002.555232,-00000.325484,-00000.102595,-00000.564643,00000.019426,-00000.171489,00000.026127
0000000001062,00002.748132,00002.296836,00002.305129,00003.069447,00002.916714,00003.008402,00002.844334,00003.339252,00002.870403,00002.555311,-00000.324803,-00000.103376,-00000.564744,00000.019432,-00000.171034,00000.026333
0000000001063,00002.748119,00002.296882,00002.304695,00003.068633,00002.916485,00003.008661,00002.843923,00003.339232,00002.870275,00002.554750,-00000.324610,-00000.104028,-00000.564849,00000.019077,-00000.170658,00000.026233
0000000001064,00002.747990,00002.297410,00002.304107,00003.067237,00002.916899,00003.008376,00002.844398,00003.339006,00002.870219,00002.554818,-00000.324757,-00000.104693,-00000.564934,00000.018720,-00000.170271,00000.026045
0000000001065,00002.747979,00002.297450,00002.303738,00003.066181,00002.916704,00003.008597,00002.844411,00003.338989,00002.870110,00002.554340,-00000.324955,-00000.105247,-00000.565024,00000.018417,-00000.169951,00000.025597
0000000001066,00002.747506,00002.297899,00002.303237,00003.064993,00002.916694,00003.008354,00002.844453,00003.338434,00002.870062,00002.553672,-00000.325079,-00000.105813,-00000.565097,00000.018113,-00000.169985,00000.025438
0000000001067,00002.747497,00002.298295,00002.302923,00003.064094,00002.916890,00003.008542,00002.844464,00003.338420,00002.869969,00002.553266,-00000.325611,-00000.106285,-00000.565535,00000.017855,-00000.170075,00000.025419
0000000001068,00002.747457,00002.298315,00002.302134,00003.062720,00002.916882,00003.008699,00002.844137,00003.338310,00002.869565,00002.553060,-00000.326806,-00000.106767,-00000.565597,00000.017596,-00000.170466,00000.025283
0000000001069,00002.747812,00002.299015,00002.300778,00003.060140,00002.917049,00003.008858,00002.844146,00003.338660,00002.869124,00002.552714,-00000.329072,-00000.106444,-00000.565245,00000.017377,-00000.171269,00000.024541
0000000001070,00002.747778,00002.300846,00002.298656,00003.056794,00002.917042,00003.008629,00002.844230,00003.338204,00002.869143,00002.551450,-00000.331903,-00000.105766,-00000.565298,00000.017156,-00000.172690,00000.023337
0000000001071,00002.748080,00002.303619,00002.295324,00003.052784,00002.917184,00003.008765,00002.844238,00003.338139,00002.868404,00002.549704,-00000.334195,-00000.105127,-00000.565361,00000.016969,-00000.174825,00000.023069
0000000001072,00002.748413,00002.307354,00002.291703,00003.049210,00002.916815,00003.008932,00002.844310,00003.338114,00002.868057,00002.547540,-00000.335880,-00000.104550,-00000.565406,00000.016419,-00000.176397,00000.022769
0000000001073,00002.748671,00002.311166,00002.287053,00003.045433,00002.916937,00003.008685,00002.844316,00003.338059,00002.867791,00002.545691,-00000.338557,-00000.104007,-00000.565460,00000.016260,-00000.177852,00000.022178
0000000001074,00002.749318,00002.314346,00002.281794,00003.041302,00002.916985,00003.009191,00002.844015,00003.338037,00002.867133,00002.543849,-00000.344344,-00000.104241,-00000.565498,00000.016154,-00000.179553,00000.021560
0000000001075,00002.749537,00002.317954,00002.275659,00003.036273,00002.917089,00003.008980,00002.844020,00003.337628,00002.866544,00002.541549,-00000.353879,-00000.104866,-00000.565181,00000.015656,-00000.183331,00000.020694
0000000001076,00002.750087,00002.321386,00002.267917,00003.030579,00002.917130,00003.009048,00002.844126,00003.337609,00002.865984,00002.538893,-00000.365336,-00000.105791,-00000.564851,00000.015566,-00000.188045,00000.019080
0000000001077,00002.750637,00002.325183,00002.260154,00003.024847,00002.917218,00003.009231,00002.844494,00003.337623,00002.865845,00002.536209,-00000.378532,-00000.107050,-00000.564944,00000.015142,-00000.193437,00000.017254
0000000001078,00002.750743,00002.328831,00002.251749,00003.019274,00002.917253,00003.009289,00002.844584,00003.337244,00002.865731,00002.533222,-00000.396629,-00000.108563,-00000.565389,00000.014703,-00000.199264,00000.015880
0000000001079,00002.751210,00002.332063,00002.243327,00003.013669,00002.916965,00003.009808,00002.844171,00003.337257,00002.864887,00002.530575,-00000.418384,-00000.110359,-00000.565830,00000.014342,-00000.204943,00000.015051
0000000001080,00002.751663,00002.334806,00002.235084,00003.008562,00002.916632,00003.010220,00002.843885,00003.337297,00002.864065,00002.527669,-00000.442135,-00000.113099,-00000.566209,00000.013968,-00000.210266,00000.013881
0000000001081,00002.751698,00002.341185,00002.227188,00003.003790,00002.916750,00003.010662,00002.843897,00003.336944,00002.863346,00002.525053,-00000.467185,-00000.115354,-00000.566222,00000.014023,-00000.215826,00000.012450
0000000001082,00002.752084,00002.347511,00002.218719,00002.999080,00002.916467,00003.011012,00002.844016,00003.336616,00002.862646,00002.522579,-00000.493935,-00000.118048,-00000.567270,00000.013705,-00000.219995,00000.011454
0000000001083,00002.752114,00002.352942,00002.210547,00002.993567,00002.916567,00003.011026,00002.844026,00003.336679,00002.862034,00002.520352,-00000.522516,-00000.121057,-00000.568370,00000.013752,-00000.221826,00000.011687
0000000001084,00002.752080,00002.358689,00002.202974,00002.988106,00002.916688,00003.010961,00002.844128,00003.336762,00002.861076,00002.518246,-00000.553269,-00000.124439,-00000.569262,00000.013843,-00000.221747,00000.011928
0000000001085,00002.752468,00002.363313,00002.196017,00002.983412,00002.916411,00003.011335,00002.843773,00003.336815,00002.860555,00002.516350,-00000.587032,-00000.128088,-00000.569835,00000.013884,-00000.221492,00000.011038
0000000001086,00002.752439,00002.368206,00002.189208,00002.979126,00002.916514,00003.011281,00002.843860,00003.336524,00002.860464,00002.514557,-00000.624459,-00000.132419,-00000.570594,00000.013962,-00000.222150,00000.009791
0000000001087,00002.752407,00002.372867,00002.182560,00002.974405,00002.916641,00003.011236,00002.843558,00003.336206,00002.860021,00002.512943,-00000.664449,-00000.137339,-00000.571445,00000.013996,-00000.222296,00000.008671
0000000001088,00002.752382,00002.377395,00002.176038,00002.969668,00002.916729,00003.011190,00002.843632,00003.335958,00002.859581,00002.511780,-00000.707919,-00000.142840,-00000.572817,00000.013700,-00000.221768,00000.006521
0000000001089,00002.752354,00002.381364,00002.169652,00002.964197,00002.916837,00003.011515,00002.843375,00003.336050,00002.858841,00002.510406,-00000.755023,-00000.148843,-00000.574267,00000.013366,-00000.221529,00000.004116
0000000001090,00002.752333,00002.385581,00002.163012,00002.958713,00002.916549,00003.011838,00002.842712,00003.335839,00002.857741,00002.509053,-00000.805816,-00000.155702,-00000.576161,00000.012751,-00000.221443,00000.001924
0000000001091,00002.751584,00002.389685,00002.156487,00002.952968,00002.916641,00003.012115,00002.842856,00003.335555,00002.857836,00002.507883,-00000.859701,-00000.163352,-00000.578484,00000.011741,-00000.221965,-00000.000849
0000000001092,00002.750840,00002.393638,00002.150471,00002.946485,00002.916759,00003.012027,00002.843017,00003.335375,00002.857625,00002.506368,-00000.916727,-00000.171368,-00000.580821,00000.010492,-00000.222979,-00000.004167
0000000001093,00002.750566,00002.397495,00002.144917,00002.939781,00002.916474,00003.012263,00002.842777,00003.335133,00002.857344,00002.505009,-00000.979289,-00000.180420,-00000.583887,00000.009270,-00000.223424,-00000.007616
0000000001094,00002.749932,00002.401223,00002.139433,00002.932085,00002.916574,00003.012551,00002.842914,00003.334980,00002.857164,00002.503720,-00001.050328,-00000.190146,-00000.586240,00000.008206,-00000.223562,-00000.010803
0000000001095,00002.749699,00002.404506,00002.135068,00002.923475,00002.917057,00003.012751,00002.842710,00003.335137,00002.856199,00002.502926,-00001.124265,-00000.199666,-00000.587761,00000.008254,-00000.223215,-00000.013739
0000000001096,00002.749160,00002.407680,00002.131125,00002.914747,00002.917506,00003.012996,00002.842827,00003.335369,00002.856046,00002.502191,-00001.198165,-00000.209035,-00000.588676,00000.008800,-00000.222244,-00000.017541
0000000001097,00002.748235,00002.410837,00002.127408,00002.906329,00002.917917,00003.013167,00002.843016,00003.335140,00002.855950,00002.501153,-00001.271266,-00000.218590,-00000.589971,00000.009203,-00000.220135,-00000.020766
0000000001098,00002.747413,00002.413539,00002.125140,00002.898536,00002.918299,00003.013376,00002.843115,00003.334975,00002.855457,00002.500164,-00001.342521,-00000.227654,-00000.590387,00000.010031,-00000.218220,-00000.023277
0000000001099,00002.746626,00002.416590,00002.123427,00002.892095,00002.918286,00003.013884,00002.843276,00003.335143,00002.855375,00002.499280,-00001.411645,-00000.236514,-00000.590401,00000.010737,-00000.216424,-00000.024934
0000000001100,00002.745927,00002.419253,00002.124399,00002.885824,00002.918248,00003.014787,00002.842998,00003.335365,00002.855318,00002.498439,-00001.477383,-00000.244593,-00000.590392,00000.011079,-00000.214431,-00000.025257
0000000001101,00002.744894,00002.421850,00002.125118,00002.879253,00002.918600,00003.014857,00002.843134,00003.335508,00002.854886,00002.498049,-00001.540945,-00000.252135,-00000.591130,00000.010955,-00000.210363,-00000.025217
0000000001102,00002.743935,00002.424117,00002.125944,00002.873188,00002.918568,00003.015263,00002.842898,00003.335697,00002.854475,00002.497332,-00001.602349,-00000.259738,-00000.592211,00000.010883,-00000.204313,-00000.026581
0000000001103,00002.742331,00002.425965,00002.126557,00002.867231,00002.918867,00003.014960,00002.842651,00003.335093,00002.854106,00002.496638,-00001.662627,-00000.267248,-00000.592476,00000.011140,-00000.197222,-00000.029449
0000000001104,00002.741152,00002.427895,00002.126898,00002.862069,00002.918840,00003.015306,00002.842450,00003.334891,00002.853756,00002.496028,-00001.721068,-00000.274446,-00000.592308,00000.011078,-00000.190257,-00000.032061
0000000001105,00002.739786,00002.429468,00002.127781,00002.856998,00002.919458,00003.015410,00002.842603,00003.334740,00002.853443,00002.495799,-00001.778187,-00000.281564,-00000.591808,00000.011297,-00000.182769,-00000.034140
0000000001106,00002.738057,00002.431474,00002.128435,00002.852240,00002.919797,00003.014979,00002.842431,00003.334568,00002.853145,00002.494917,-00001.833380,-00000.288418,-00000.591302,00000.011971,-00000.175027,-00000.036000
0000000001107,00002.736894,00002.432450,00002.129550,00002.847197,00002.919960,00003.015068,00002.842199,00003.334439,00002.852515,00002.494360,-00001.886722,-00000.295566,-00000.591239,00000.012520,-00000.168289,-00000.038133
0000000001108,00002.735785,00002.433795,00002.130106,00002.842421,00002.920612,00003.015064,00002.842416,00003.334293,00002.852262,00002.493972,-00001.936610,-00000.302851,-00000.591171,00000.013093,-00000.163149,-00000.040080
0000000001109,00002.734795,00002.434626,00002.131055,00002.838129,00002.920751,00003.015140,00002.842218,00003.334546,00002.852089,00002.493860,-00001.982383,-00000.309662,-00000.590392,00000.013197,-00000.158865,-00000.042258
0000000001110,00002.733488,00002.435408,00002.131891,00002.833700,00002.920943,00003.015136,00002.842039,00003.334422,00002.851510,00002.493530,-00002.024127,-00000.315501,-00000.589246,00000.013323,-00000.154852,-00000.044278
0000000001111,00002.731919,00002.436479,00002.132337,00002.830046,00002.921061,00003.015563,00002.842234,00003.334274,00002.851725,00002.492709,-00002.064182,-00000.321662,-00000.588220,00000.013049,-00000.149390,-00000.045407
0000000001112,00002.730081,00002.437507,00002.132686,00002.826639,00002.921225,00003.015560,00002.842445,00003.334168,00002.851595,00002.492065,-00002.101170,-00000.327359,-00000.586881,00000.013156,-00000.142709,-00000.046038
0000000001113,00002.728746,00002.438056,00002.133428,00002.823527,00002.921688,00003.015561,00002.842247,00003.334406,00002.851053,00002.491729,-00002.135631,-00000.332603,-00000.584920,00000.013648,-00000.135883,-00000.046636
0000000001114,00002.727907,00002.438568,00002.134088,00002.820990,00002.921827,00003.015921,00002.842064,00003.334678,00002.851305,00002.491181,-00002.166030,-00000.336727,-00000.581966,00000.014464,-00000.129470,-00000.048262
0000000001115,00002.727495,00002.439035,00002.134719,00002.819067,00002.921859,00003.016285,00002.841896,00003.334880,00002.851206,00002.490895,-00002.192102,-00000.339378,-00000.578482,00000.015972,-00000.123659,-00000.050948
0000000001116,00002.727144,00002.439472,00002.134918,00002.816907,00002.922340,00003.016229,00002.841740,00003.335112,00002.850696,00002.490429,-00002.215079,-00000.341438,-00000.575605,00000.017756,-00000.118199,-00000.053058
0000000001117,00002.726431,00002.439144,00002.135093,00002.814544,00002.922368,00003.016175,00002.841597,00003.334922,00002.850249,00002.489822,-00002.235097,-00000.342606,-00000.573002,00000.019765,-00000.112889,-00000.054981
0000000001118,00002.725406,00002.439515,00002.135262,00002.812705,00002.922414,00003.016128,00002.841827,00003.334756,00002.850539,00002.489425,-00002.252843,-00000.342545,-00000.570190,00000.021283,-00000.108604,-00000.056777
0000000001119,00002.724799,00002.439599,00002.135411,00002.811419,00002.922075,00003.016445,00002.841343,00003.334594,00002.850522,00002.488909,-00002.267345,-00000.341726,-00000.568337,00000.022267,-00000.105535,-00000.058778
0000000001120,00002.724652,00002.439190,00002.135556,00002.809854,00002.922477,00003.016404,00002.841176,00003.334453,00002.850044,00002.488934,-00002.279187,-00000.340949,-00000.567031,00000.022834,-00000.102613,-00000.059944
0000000001121,00002.723773,00002.439261,00002.135320,00002.809122,00002.922551,00003.016312,00002.841126,00003.334315,00002.850028,00002.488494,-00002.290081,-00000.340251,-00000.566179,00000.023310,-00000.100000,-00000.060559
0000000001122,00002.722922,00002.439275,00002.135080,00002.808515,00002.922531,00003.016640,00002.840984,00003.333832,00002.849984,00002.488152,-00002.300888,-00000.339952,-00000.564705,00000.024518,-00000.096787,-00000.061551
0000000001123,00002.722537,00002.439336,00002.135241,00002.807529,00002.922956,00003.016561,00002.841304,00003.333715,00002.849971,00002.488141,-00002.311614,-00000.339358,-00000.562528,00000.026011,-00000.092749,-00000.062800
0000000001124,00002.722572,00002.439762,00002.135538,00002.806899,00002.922939,00003.017136,00002.841456,00003.333204,00002.850286,00002.487841,-00002.329219,-00000.338236,-00000.559057,00000.029036,-00000.084399,-00000.064708
0000000001125,00002.722240,00002.440125,00002.135427,00002.806362,00002.923287,00003.017263,00002.841223,00003.333132,00002.850190,00002.487585,-00002.343480,-00000.338368,-00000.558642,00000.029435,-00000.078016,-00000.067058
0000000001126,00002.721886,00002.440034,00002.135187,00002.806304,00002.923220,00003.017111,00002.841135,00003.332788,00002.850526,00002.487328,-00002.350935,-00000.339681,-00000.559222,00000.028637,-00000.074974,-00000.067517
0000000001127,00002.721957,00002.440072,00002.135696,00002.805542,00002.923583,00003.017008,00002.841387,00003.332707,00002.850835,00002.487730,-00002.358886,-00000.341383,-00000.560103,00000.027598,-00000.072583,-00000.068333
0000000001128,00002.722079,00002.440026,00002.135924,00002.804119,00002.923472,00003.016791,00002.840438,00003.332709,00002.850658,00002.487853,-00002.373452,-00000.344313,-00000.562435,00000.024582,-00000.066869,-00000.067968
0000000001129,00002.722183,00002.439987,00002.136119,00002.803270,00002.923378,00003.016969,00002.840356,00003.332710,00002.850507,00002.488321,-00002.385852,-00000.346082,-00000.566234,00000.020201,-00000.058739,-00000.066568
0000000001130,00002.722227,00002.439931,00002.136234,00002.802654,00002.923699,00003.016821,00002.840348,00003.332761,00002.850451,00002.488788,-00002.390823,-00000.347571,-00000.568507,00000.017114,-00000.056823,-00000.066650
0000000001131,00002.722634,00002.439954,00002.136285,00002.802547,00002.923660,00003.017121,00002.840286,00003.333074,00002.850742,00002.489082,-00002.394232,-00000.349038,-00000.570556,00000.014658,-00000.055810,-00000.067190
0000000001132,00002.723744,00002.440651,00002.137151,00002.801569,00002.924263,00003.016887,00002.840226,00003.332659,00002.850579,00002.489367,-00002.397012,-00000.351192,-00000.573511,00000.009939,-00000.055492,-00000.071348
0000000001133,00002.725777,00002.441245,00002.137526,00002.801462,00002.924051,00003.017414,00002.839450,00003.332667,00002.850440,00002.489973,-00002.392485,-00000.351938,-00000.576751,00000.006647,-00000.055222,-00000.076701
0000000001134,00002.726322,00002.441836,00002.137497,00002.801754,00002.923941,00003.017268,00002.839862,00003.332382,00002.850768,00002.490307,-00002.390107,-00000.352239,-00000.578199,00000.004634,-00000.055092,-00000.079765
0000000001135,00002.727246,00002.442254,00002.137095,00002.801257,00002.924140,00003.017013,00002.840228,00003.332069,00002.851327,00002.490773,-00002.383342,-00000.352466,-00000.579654,00000.001043,-00000.055606,-00000.088583
0000000001136,00002.727275,00002.442852,00002.137137,00002.801240,00002.924443,00003.017263,00002.840242,00003.332064,00002.851564,00002.490927,-00002.377949,-00000.352024,-00000.580461,-00000.000556,-00000.055830,-00000.092326
0000000001137,00002.728396,00002.442972,00002.137479,00002.801559,00002.924672,00003.017883,00002.840177,00003.332528,00002.851802,00002.491532,-00002.370327,-00000.351208,-00000.581255,-00000.002377,-00000.056408,-00000.094639
0000000001138,00002.729011,00002.443221,00002.137080,00002.801816,00002.924762,00003.017899,00002.840134,00003.332194,00002.852570,00002.492541,-00002.352355,-00000.347961,-00000.582619,-00000.005289,-00000.055638,-00000.097254
0000000001139,00002.730261,00002.442707,00002.137465,00002.802035,00002.924839,00003.018275,00002.840460,00003.332635,00002.852498,00002.494126,-00002.329799,-00000.343382,-00000.583053,-00000.008130,-00000.054984,-00000.096579
0000000001140,00002.730850,00002.442504,00002.137437,00002.802342,00002.924663,00003.018430,00002.840414,00003.332577,00002.852598,00002.494793,-00002.317172,-00000.340977,-00000.583242,-00000.009380,-00000.055638,-00000.094787
0000000001141,00002.732285,00002.442259,00002.137401,00002.803052,00002.925013,00003.017833,00002.840665,00003.331986,00002.853002,00002.496986,-00002.278479,-00000.334460,-00000.585862,-00000.013334,-00000.064350,-00000.090141
0000000001142,00002.733048,00002.441888,00002.136651,00002.803087,00002.925053,00003.017494,00002.840549,00003.331732,00002.852865,00002.498273,-00002.252760,-00000.332614,-00000.588354,-00000.016068,-00000.073284,-00000.087621
0000000001143,00002.734060,00002.441573,00002.136375,00002.803480,00002.924723,00003.017205,00002.840450,00003.332242,00002.853112,00002.500456,-00002.227962,-00000.332494,-00000.590476,-00000.018758,-00000.081252,-00000.086201
0000000001144,00002.733968,00002.441420,00002.135734,00002.803641,00002.924229,00003.016699,00002.840426,00003.331532,00002.853150,00002.501076,-00002.216040,-00000.332460,-00000.591548,-00000.019584,-00000.085188,-00000.085206
0000000001145,00002.735206,00002.441174,00002.135232,00002.804677,00002.924022,00003.017254,00002.839983,00003.332071,00002.852992,00002.502480,-00002.191987,-00000.330549,-00000.593195,-00000.021025,-00000.091023,-00000.082331
0000000001146,00002.735346,00002.441438,00002.134959,00002.805913,00002.924258,00003.017474,00002.840349,00003.332118,00002.853555,00002.503280,-00002.180243,-00000.329148,-00000.594545,-00000.021653,-00000.092667,-00000.079772
0000000001147,00002.736380,00002.440463,00002.134572,00002.807700,00002.923684,00003.017551,00002.840280,00003.332207,00002.853336,00002.505445,-00002.156796,-00000.326641,-00000.596834,-00000.023875,-00000.094125,-00000.071537
0000000001148,00002.736849,00002.440423,00002.134439,00002.808325,00002.924005,00003.017093,00002.840265,00003.332249,00002.853051,00002.506399,-00002.145077,-00000.325885,-00000.597805,-00000.025420,-00000.095154,-00000.067510
0000000001149,00002.736897,00002.440722,00002.133879,00002.808858,00002.923921,00003.016890,00002.840221,00003.331920,00002.853513,00002.506925,-00002.133571,-00000.325596,-00000.598420,-00000.026855,-00000.096091,-00000.064165
0000000001150,00002.737699,00002.440580,00002.134015,00002.810207,00002.923397,00003.017416,00002.839446,00003.332402,00002.852938,00002.508547,-00002.109083,-00000.325794,-00000.599771,-00000.030844,-00000.098854,-00000.060066
0000000001151,00002.737294,00002.440458,00002.133768,00002.811718,00002.923314,00003.017864,00002.839511,00003.332449,00002.853174,00002.509203,-00002.084608,-00000.324874,-00000.601646,-00000.034964,-00000.101205,-00000.058390
0000000001152,00002.737638,00002.440434,00002.134049,00002.812366,00002.923658,00003.018108,00002.839911,00003.332838,00002.853306,00002.509846,-00002.073168,-00000.323899,-00000.602653,-00000.036751,-00000.102050,-00000.057620
0000000001153,00002.738330,00002.440334,00002.133797,00002.813919,00002.923536,00003.018090,00002.839544,00003.332820,00002.853125,00002.511034,-00002.051494,-00000.322536,-00000.604826,-00000.039631,-00000.103563,-00000.056671
0000000001154,00002.738308,00002.440267,00002.133325,00002.814824,00002.923546,00003.017482,00002.839614,00003.332469,00002.853237,00002.511217,-00002.040447,-00000.321356,-00000.605582,-00000.041149,-00000.105745,-00000.056111
0000000001155,00002.738538,00002.440555,00002.133181,00002.816374,00002.923803,00003.017194,00002.839655,00003.332143,00002.853791,00002.512201,-00002.016746,-00000.319282,-00000.607318,-00000.044100,-00000.109612,-00000.055023
0000000001156,00002.738750,00002.440540,00002.133454,00002.816675,00002.923290,00003.017444,00002.839638,00003.332120,00002.853873,00002.512598,-00002.005286,-00000.318372,-00000.608303,-00000.045566,-00000.111685,-00000.054866
0000000001157,00002.739277,00002.440425,00002.134379,00002.817587,00002.923222,00003.017525,00002.839312,00003.332572,00002.853607,00002.513740,-00001.984637,-00000.317105,-00000.609635,-00000.047860,-00000.114305,-00000.055777
0000000001158,00002.739935,00002.440338,00002.135748,00002.818145,00002.923591,00003.018085,00002.839409,00003.332973,00002.853684,00002.514478,-00001.975672,-00000.315960,-00000.610001,-00000.048697,-00000.114926,-00000.056049
0000000001159,00002.739923,00002.439890,00002.137057,00002.819564,00002.923479,00003.018070,00002.839480,00003.332572,00002.853809,00002.515341,-00001.960514,-00000.313600,-00000.610718,-00000.050163,-00000.114888,-00000.054245
0000000001160,00002.740108,00002.439880,00002.137851,00002.820004,00002.923788,00003.018325,00002.839833,00003.332612,00002.853806,00002.515539,-00001.952711,-00000.312784,-00000.611425,-00000.050804,-00000.114660,-00000.053021
0000000001161,00002.740796,00002.440226,00002.138122,00002.821872,00002.923647,00003.018275,00002.839841,00003.332628,00002.854638,00002.516607,-00001.935526,-00000.311259,-00000.612656,-00000.052682,-00000.115387,-00000.052756
0000000001162,00002.741611,00002.440218,00002.138758,00002.822526,00002.923974,00003.018357,00002.839901,00003.332921,00002.854678,00002.517062,-00001.926591,-00000.311279,-00000.613191,-00000.053870,-00000.116641,-00000.053216
0000000001163,00002.742801,00002.440151,00002.140708,00002.823293,00002.924168,00003.018302,00002.839899,00003.333254,00002.854655,00002.518629,-00001.908573,-00000.311429,-00000.614159,-00000.055655,-00000.118888,-00000.054735
0000000001164,00002.742861,00002.440462,00002.141236,00002.824199,00002.924042,00003.018196,00002.840216,00003.333324,00002.855332,00002.519323,-00001.899858,-00000.311543,-00000.614595,-00000.056622,-00000.119528,-00000.055387
0000000001165,00002.743865,00002.440721,00002.142817,00002.825443,00002.923863,00003.017802,00002.840530,00003.333234,00002.855575,00002.520916,-00001.883639,-00000.312742,-00000.615717,-00000.059449,-00000.119894,-00000.056583
0000000001166,00002.744059,00002.441387,00002.143526,00002.826518,00002.923802,00003.017907,00002.840876,00003.333160,00002.856271,00002.521823,-00001.874589,-00000.313426,-00000.616772,-00000.060900,-00000.120050,-00000.057130
0000000001167,00002.744522,00002.442597,00002.144042,00002.827417,00002.924021,00003.017556,00002.841091,00003.332369,00002.856737,00002.523044,-00001.859588,-00000.315434,-00000.618659,-00000.064179,-00000.120701,-00000.059155
0000000001168,00002.744776,00002.443144,00002.143913,00002.827659,00002.923943,00003.017491,00002.841387,00003.332421,00002.856938,00002.523010,-00001.853901,-00000.316702,-00000.619500,-00000.065973,-00000.121922,-00000.061734
0000000001169,00002.745858,00002.445181,00002.143645,00002.827300,00002.923053,00003.017928,00002.840438,00003.333190,00002.856579,00002.522966,-00001.841614,-00000.318585,-00000.621344,-00000.069949,-00000.127011,-00000.071420
0000000001170,00002.746287,00002.446627,00002.143874,00002.827491,00002.923024,00003.018401,00002.840397,00003.333500,00002.856799,00002.522954,-00001.836510,-00000.319216,-00000.622358,-00000.071725,-00000.129277,-00000.076413
0000000001171,00002.746419,00002.448872,00002.143612,00002.827521,00002.923359,00003.017977,00002.839958,00003.333383,00002.856824,00002.522919,-00001.827535,-00000.320000,-00000.624139,-00000.074845,-00000.129644,-00000.085004
0000000001172,00002.746167,00002.450406,00002.143532,00002.828078,00002.923666,00003.018253,00002.840286,00003.333369,00002.857357,00002.522535,-00001.822866,-00000.319847,-00000.624558,-00000.075852,-00000.129805,-00000.090875
0000000001173,00002.746317,00002.452815,00002.142596,00002.828020,00002.923180,00003.017851,00002.839864,00003.332910,00002.857661,00002.522199,-00001.809389,-00000.317635,-00000.624561,-00000.077271,-00000.130819,-00000.104209
0000000001174,00002.746082,00002.454139,00002.141798,00002.828333,00002.923129,00003.017872,00002.839867,00003.332881,00002.857920,00002.521913,-00001.795739,-00000.314664,-00000.624201,-00000.078116,-00000.130594,-00000.114834
0000000001175,00002.746037,00002.454575,00002.141023,00002.828828,00002.922751,00003.017981,00002.839521,00003.333183,00002.858021,00002.521960,-00001.789620,-00000.312909,-00000.623483,-00000.077743,-00000.130296,-00000.119514
0000000001176,00002.745118,00002.455275,00002.139371,00002.829021,00002.923126,00003.017620,00002.839576,00003.333114,00002.857864,00002.522073,-00001.777459,-00000.308826,-00000.621106,-00000.077792,-00000.130875,-00000.132943
0000000001177,00002.744985,00002.456335,00002.138110,00002.829861,00002.923103,00003.018267,00002.839617,00003.333508,00002.858020,00002.522134,-00001.768785,-00000.306514,-00000.620222,-00000.077432,-00000.130549,-00000.138929
0000000001178,00002.744585,00002.457136,00002.135077,00002.830627,00002.922338,00003.018588,00002.839294,00003.333391,00002.857863,00002.521495,-00001.749926,-00000.300117,-00000.619419,-00000.077527,-00000.125648,-00000.148745
0000000001179,00002.743882,00002.456367,00002.132133,00002.832003,00002.922049,00003.018499,00002.839020,00003.333291,00002.857729,00002.521314,-00001.734960,-00000.292132,-00000.619460,-00000.076883,-00000.116760,-00000.151659
0000000001180,00002.743674,00002.455893,00002.130976,00002.832974,00002.921718,00003.018958,00002.839077,00003.333171,00002.857836,00002.521022,-00001.729456,-00000.288738,-00000.619153,-00000.076239,-00000.112679,-00000.152347
0000000001181,00002.743283,00002.455712,00002.129626,00002.833538,00002.921804,00003.019149,00002.839148,00003.333205,00002.857978,00002.520797,-00001.724759,-00000.286785,-00000.618045,-00000.075971,-00000.110281,-00000.155954
0000000001182,00002.742773,00002.455154,00002.127855,00002.833757,00002.921595,00003.018976,00002.839258,00003.333133,00002.857827,00002.520720,-00001.714987,-00000.282233,-00000.616477,-00000.075921,-00000.107669,-00000.165052
0000000001183,00002.742260,00002.454811,00002.127017,00002.833842,00002.921355,00003.019000,00002.838991,00003.333046,00002.857959,00002.520508,-00001.712140,-00000.280083,-00000.615999,-00000.076126,-00000.105838,-00000.168948
0000000001184,00002.741539,00002.454025,00002.124545,00002.834015,00002.920850,00003.018850,00002.838761,00003.332635,00002.857811,00002.520111,-00001.713677,-00000.275802,-00000.614010,-00000.076416,-00000.101347,-00000.172849
0000000001185,00002.740563,00002.453718,00002.122441,00002.833800,00002.920783,00003.018722,00002.839291,00003.332284,00002.857685,00002.519773,-00001.721878,-00000.272521,-00000.611591,-00000.076662,-00000.098612,-00000.176170
0000000001186,00002.740458,00002.453306,00002.121793,00002.833510,00002.920202,00003.018907,00002.838927,00003.332402,00002.857397,00002.519669,-00001.726441,-00000.271371,-00000.610298,-00000.077108,-00000.097683,-00000.178378
0000000001187,00002.739643,00002.453107,00002.120098,00002.833007,00002.920594,00003.019133,00002.839069,00003.332449,00002.857333,00002.519397,-00001.737823,-00000.269474,-00000.608431,-00000.077614,-00000.096581,-00000.181965
0000000001188,00002.739025,00002.452872,00002.119434,00002.832426,00002.920677,00003.018829,00002.839092,00003.332404,00002.857124,00002.519603,-00001.744946,-00000.268693,-00000.608195,-00000.078085,-00000.095590,-00000.182276
0000000001189,00002.738786,00002.452737,00002.117727,00002.832810,00002.920273,00003.019067,00002.839210,00003.332451,00002.856737,00002.519340,-00001.760470,-00000.266106,-00000.607367,-00000.078808,-00000.092260,-00000.180930
0000000001190,00002.738582,00002.452985,00002.116637,00002.832773,00002.920654,00003.019269,00002.839673,00003.332490,00002.856408,00002.519116,-00001.776225,-00000.263904,-00000.606661,-00000.078336,-00000.089787,-00000.177607
0000000001191,00002.738164,00002.453394,00002.116436,00002.832884,00002.920935,00003.019366,00002.839745,00003.332606,00002.856257,00002.519116,-00001.784506,-00000.263091,-00000.606886,-00000.078262,-00000.088457,-00000.175939
0000000001192,00002.738053,00002.453544,00002.115538,00002.832837,00002.920856,00003.019161,00002.839766,00003.332260,00002.856362,00002.519289,-00001.799589,-00000.262788,-00000.606977,-00000.078233,-00000.086913,-00000.174447
0000000001193,00002.737589,00002.454047,00002.114865,00002.833079,00002.920530,00003.019279,00002.839732,00003.331827,00002.856615,00002.519073,-00001.806481,-00000.262502,-00000.606838,-00000.078264,-00000.086253,-00000.173042
0000000001194,00002.737564,00002.454825,00002.114201,00002.833003,00002.920147,00003.019450,00002.839755,00003.331960,00002.856667,00002.519252,-00001.820836,-00000.261561,-00000.607300,-00000.077510,-00000.082497,-00000.168716
0000000001195,00002.737542,00002.454763,00002.113635,00002.833301,00002.920185,00003.019958,00002.839774,00003.332435,00002.856711,00002.519042,-00001.836321,-00000.261486,-00000.607693,-00000.078319,-00000.078574,-00000.166121
0000000001196,00002.737183,00002.454708,00002.113614,00002.832679,00002.920780,00003.019593,00002.839812,00003.332481,00002.856493,00002.519304,-00001.842548,-00000.261235,-00000.608212,-00000.078997,-00000.077735,-00000.165004
0000000001197,00002.737160,00002.454709,00002.113516,00002.832829,00002.920942,00003.020028,00002.839791,00003.332840,00002.856749,00002.519225,-00001.847690,-00000.260696,-00000.609115,-00000.079733,-00000.077411,-00000.163186
0000000001198,00002.737198,00002.454301,00002.113415,00002.831701,00002.921949,00003.019725,00002.839805,00003.332822,00002.856781,00002.519744,-00001.854829,-00000.259661,-00000.611415,-00000.080575,-00000.076784,-00000.158511
0000000001199,00002.737593,00002.454316,00002.113329,00002.831467,00002.922444,00003.019467,00002.840180,00003.332807,00002.856808,00002.520186,-00001.861631,-00000.259505,-00000.613372,-00000.081654,-00000.078427,-00000.157434
0000000001200,00002.737635,00002.455008,00002.113679,00002.831755,00002.922812,00003.019195,00002.840512,00003.332835,00002.857299,00002.520348,-00001.865510,-00000.259443,-00000.614219,-00000.081756,-00000.079145,-00000.156203
0000000001201,00002.737602,00002.454918,00002.115005,00002.831150,00002.923541,00003.019016,00002.840419,00003.333180,00002.856886,00002.521063,-00001.875078,-00000.259683,-00000.615397,-00000.081208,-00000.080074,-00000.152203
0000000001202,00002.737544,00002.455320,00002.116350,00002.831044,00002.923533,00003.019060,00002.840408,00003.332728,00002.857160,00002.520883,-00001.880265,-00000.259932,-00000.616512,-00000.081340,-00000.079927,-00000.149892
0000000001203,00002.737937,00002.455567,00002.117585,00002.830998,00002.923799,00003.019226,00002.840702,00003.332749,00002.857261,00002.521309,-00001.886125,-00000.260612,-00000.617488,-00000.081830,-00000.079413,-00000.148436
0000000001204,00002.737497,00002.456119,00002.119418,00002.830869,00002.923656,00003.018679,00002.840581,00003.332019,00002.857579,00002.521156,-00001.896981,-00000.262492,-00000.619268,-00000.083811,-00000.079577,-00000.148857
0000000001205,00002.737848,00002.456590,00002.122067,00002.830758,00002.923535,00003.019302,00002.840840,00003.332848,00002.858214,00002.521750,-00001.904772,-00000.264092,-00000.620783,-00000.085860,-00000.081167,-00000.150303
0000000001206,00002.738175,00002.456892,00002.122889,00002.830747,00002.923167,00003.019375,00002.840833,00003.332870,00002.858382,00002.522620,-00001.906221,-00000.263630,-00000.621834,-00000.086413,-00000.082057,-00000.150393
0000000001207,00002.738146,00002.457353,00002.123597,00002.830664,00002.923068,00003.019469,00002.840698,00003.332829,00002.858391,00002.523345,-00001.905236,-00000.262915,-00000.622799,-00000.086879,-00000.082884,-00000.149358
0000000001208,00002.739126,00002.457277,00002.125987,00002.829859,00002.923397,00003.019249,00002.840215,00003.332813,00002.857816,00002.525791,-00001.894385,-00000.260099,-00000.624515,-00000.086658,-00000.083982,-00000.141297
0000000001209,00002.740089,00002.457550,00002.127255,00002.830267,00002.923802,00003.019665,00002.840264,00003.333554,00002.857992,00002.527093,-00001.887955,-00000.258837,-00000.625276,-00000.086750,-00000.083902,-00000.139107
0000000001210,00002.741142,00002.457445,00002.128739,00002.830609,00002.923296,00003.019416,00002.839845,00003.333793,00002.857476,00002.528619,-00001.872417,-00000.255539,-00000.624810,-00000.085459,-00000.085212,-00000.138013
0000000001211,00002.742013,00002.457466,00002.129392,00002.830967,00002.923189,00003.019574,00002.839761,00003.334130,00002.857581,00002.530009,-00001.862694,-00000.253538,-00000.624425,-00000.084549,-00000.085821,-00000.137796
0000000001212,00002.742418,00002.457374,00002.130921,00002.831205,00002.922411,00003.019701,00002.839417,00003.333920,00002.857852,00002.531464,-00001.844745,-00000.249939,-00000.623360,-00000.081772,-00000.084669,-00000.139436
0000000001213,00002.742749,00002.457588,00002.131440,00002.831094,00002.922135,00003.019695,00002.839130,00003.333806,00002.858007,00002.532004,-00001.835733,-00000.247963,-00000.622315,-00000.079597,-00000.083393,-00000.141205
0000000001214,00002.742319,00002.457477,00002.131939,00002.831313,00002.922240,00003.019441,00002.839968,00003.333281,00002.858577,00002.533163,-00001.813812,-00000.243017,-00000.620475,-00000.074654,-00000.079337,-00000.142701
0000000001215,00002.742678,00002.457746,00002.133452,00002.832225,00002.921603,00003.019588,00002.840319,00003.333197,00002.859789,00002.534149,-00001.786081,-00000.238080,-00000.618183,-00000.068995,-00000.075158,-00000.140347
0000000001216,00002.743097,00002.458205,00002.134527,00002.833586,00002.921640,00003.019354,00002.840577,00003.333197,00002.860099,00002.534392,-00001.768766,-00000.235206,-00000.617548,-00000.065937,-00000.072034,-00000.136628
0000000001217,00002.744066,00002.460542,00002.138195,00002.836337,00002.921818,00003.019151,00002.840474,00003.333126,00002.860358,00002.535921,-00001.724152,-00000.228529,-00000.615691,-00000.059397,-00000.062411,-00000.126106
0000000001218,00002.745367,00002.463866,00002.139557,00002.838834,00002.921526,00003.019201,00002.840508,00003.333065,00002.860717,00002.536738,-00001.696592,-00000.224403,-00000.614880,-00000.055938,-00000.056885,-00000.120556
0000000001219,00002.747813,00002.471528,00002.142840,00002.843707,00002.921358,00003.018658,00002.840053,00003.333739,00002.861610,00002.539006,-00001.630785,-00000.217155,-00000.614508,-00000.049071,-00000.043710,-00000.106983
0000000001220,00002.750983,00002.480591,00002.147085,00002.849669,00002.921216,00003.018921,00002.839665,00003.333950,00002.862733,00002.540575,-00001.561339,-00000.210985,-00000.614917,-00000.043226,-00000.029229,-00000.095065
0000000001221,00002.752624,00002.484949,00002.149032,00002.854137,00002.921011,00003.019068,00002.839677,00003.333850,00002.863522,00002.541143,-00001.523020,-00000.207916,-00000.616020,-00000.040646,-00000.022398,-00000.089922
0000000001222,00002.758344,00002.492016,00002.153082,00002.862539,00002.920920,00003.018182,00002.839345,00003.333682,00002.864361,00002.542757,-00001.431506,-00000.201306,-00000.618381,-00000.034239,-00000.009997,-00000.082718
0000000001223,00002.761151,00002.495183,00002.155173,00002.867596,00002.920682,00003.018302,00002.839417,00003.333974,00002.865175,00002.543046,-00001.380919,-00000.197433,-00000.619646,-00000.031218,-00000.005843,-00000.081200
0000000001224,00002.763576,00002.496944,00002.156893,00002.872594,00002.920842,00003.018153,00002.839788,00003.333901,00002.866163,00002.543405,-00001.326753,-00000.193139,-00000.620754,-00000.028422,-00000.003069,-00000.080939
0000000001225,00002.766579,00002.494609,00002.159412,00002.882967,00002.920414,00003.017766,00002.839440,00003.333725,00002.866972,00002.544319,-00001.209642,-00000.186187,-00000.623500,-00000.025284,00000.001015,-00000.087405
0000000001226,00002.768410,00002.490082,00002.161193,00002.892524,00002.919686,00003.017436,00002.839506,00003.333576,00002.867661,00002.544735,-00001.101239,-00000.179180,-00000.625112,-00000.022976,00000.003041,-00000.097264
0000000001227,00002.769353,00002.487345,00002.161957,00002.896741,00002.919593,00003.017247,00002.839188,00003.333493,00002.867437,00002.545276,-00001.051234,-00000.175856,-00000.626572,-00000.022726,00000.002747,-00000.102199
0000000001228,00002.770046,00002.481358,00002.161546,00002.904250,00002.919712,00003.016632,00002.839292,00003.333015,00002.867331,00002.545912,-00000.960218,-00000.171111,-00000.629903,-00000.023700,-00000.001290,-00000.108770
0000000001229,00002.770570,00002.478137,00002.161568,00002.907585,00002.919519,00003.016554,00002.838939,00003.332977,00002.866677,00002.546007,-00000.917309,-00000.168863,-00000.631789,-00000.024509,-00000.003385,-00000.112385
0000000001230,00002.771445,00002.472794,00002.161578,00002.914207,00002.919287,00003.016405,00002.839080,00003.332576,00002.866321,00002.546535,-00000.835687,-00000.166972,-00000.637610,-00000.027395,-00000.006147,-00000.121069
0000000001231,00002.771447,00002.470271,00002.161207,00002.916338,00002.919283,00003.016643,00002.838784,00003.332570,00002.866183,00002.546606,-00000.803452,-00000.167986,-00000.640380,-00000.029427,-00000.007960,-00000.126003
0000000001232,00002.773279,00002.466097,00002.157279,00002.915854,00002.919449,00003.016117,00002.838948,00003.332230,00002.865538,00002.545230,-00000.764881,-00000.171305,-00000.644198,-00000.031944,-00000.014032,-00000.141006
0000000001233,00002.775565,00002.463996,00002.149219,00002.910725,00002.918865,00003.016758,00002.838361,00003.332665,00002.864263,00002.541520,-00000.766149,-00000.173404,-00000.644183,-00000.034087,-00000.023192,-00000.159583
0000000001234,00002.776358,00002.464287,00002.144458,00002.905372,00002.919087,00003.016702,00002.838454,00003.332676,00002.863834,00002.540349,-00000.778425,-00000.174711,-00000.644123,-00000.034867,-00000.027050,-00000.166566
0000000001235,00002.778912,00002.469711,00002.138305,00002.894909,00002.919645,00003.017257,00002.838304,00003.332682,00002.863176,00002.539904,-00000.826293,-00000.179932,-00000.645933,-00000.038026,-00000.028833,-00000.176625
0000000001236,00002.780619,00002.473405,00002.134610,00002.889463,00002.919904,00003.017460,00002.838418,00003.333042,00002.862925,00002.539756,-00000.856892,-00000.183336,-00000.646954,-00000.039950,-00000.030025,-00000.181727
0000000001237,00002.782901,00002.483277,00002.127744,00002.879189,00002.920341,00003.017538,00002.838999,00003.332631,00002.862765,00002.537585,-00000.924292,-00000.190902,-00000.649069,-00000.044168,-00000.031002,-00000.194249
0000000001238,00002.785570,00002.493133,00002.123713,00002.870442,00002.920712,00003.017605,00002.839494,00003.332282,00002.862628,00002.536099,-00001.003437,-00000.200608,-00000.653409,-00000.050661,-00000.032922,-00000.208899
0000000001239,00002.786434,00002.497303,00002.122469,00002.866256,00002.920868,00003.018217,00002.839891,00003.332341,00002.862711,00002.535823,-00001.049645,-00000.206614,-00000.655701,-00000.053965,-00000.034926,-00000.215827
0000000001240,00002.787479,00002.501160,00002.121370,00002.861545,00002.921028,00003.018388,00002.839915,00003.331984,00002.862511,00002.535923,-00001.096209,-00000.212862,-00000.657829,-00000.056914,-00000.036371,-00000.220645
0000000001241,00002.790193,00002.508356,00002.120101,00002.852520,00002.922386,00003.018691,00002.839911,00003.332456,00002.861686,00002.536862,-00001.196953,-00000.228735,-00000.662680,-00000.064776,-00000.039670,-00000.225929
0000000001242,00002.791074,00002.511378,00002.119508,00002.848196,00002.922807,00003.018825,00002.839889,00003.332862,00002.861492,00002.536916,-00001.249609,-00000.237064,-00000.665013,-00000.068098,-00000.042990,-00000.230347
0000000001243,00002.792528,00002.517055,00002.117790,00002.840793,00002.923175,00003.019064,00002.840251,00003.332478,00002.861907,00002.536256,-00001.353301,-00000.253329,-00000.668070,-00000.073209,-00000.054374,-00000.244346
0000000001244,00002.793403,00002.522250,00002.116691,00002.834128,00002.923850,00003.019267,00002.840923,00003.332876,00002.862623,00002.535694,-00001.447016,-00000.267901,-00000.669947,-00000.077197,-00000.064791,-00000.252998
0000000001245,00002.793550,00002.524546,00002.116384,00002.831167,00002.923702,00003.019357,00002.840882,00003.332819,00002.862827,00002.535082,-00001.489701,-00000.273971,-00000.670578,-00000.078389,-00000.067685,-00000.254168
0000000001246,00002.794147,00002.526673,00002.116118,00002.828454,00002.923337,00003.019802,00002.840769,00003.332853,00002.862870,00002.534852,-00001.531511,-00000.279581,-00000.671183,-00000.080230,-00000.068943,-00000.253108
0000000001247,00002.794781,00002.530075,00002.115992,00002.822898,00002.923625,00003.019533,00002.841000,00003.332470,00002.862717,00002.534862,-00001.606708,-00000.289524,-00000.671509,-00000.084625,-00000.070663,-00000.251750
0000000001248,00002.794958,00002.532972,00002.115523,00002.818531,00002.923508,00003.019303,00002.840834,00003.332507,00002.862588,00002.534507,-00001.669271,-00000.296537,-00000.672149,-00000.089818,-00000.075030,-00000.248780
0000000001249,00002.795048,00002.534025,00002.115334,00002.816078,00002.923780,00003.019096,00002.841172,00003.332209,00002.862404,00002.534755,-00001.697871,-00000.299664,-00000.672638,-00000.091960,-00000.076328,-00000.246110
0000000001250,00002.795548,00002.535972,00002.114962,00002.812363,00002.924003,00003.018931,00002.840981,00003.332284,00002.862321,00002.535504,-00001.749781,-00000.304806,-00000.673473,-00000.095700,-00000.079127,-00000.240714
0000000001251,00002.795599,00002.537228,00002.115146,00002.810668,00002.924304,00003.018995,00002.841245,00003.331893,00002.862383,00002.535600,-00001.772990,-00000.307281,-00000.674193,-00000.097694,-00000.081040,-00000.237638
0000000001252,00002.796380,00002.537972,00002.116617,00002.808120,00002.924449,00003.019208,00002.841043,00003.332016,00002.861940,00002.536586,-00001.815181,-00000.311291,-00000.675522,-00000.100944,-00000.085678,-00000.231325
0000000001253,00002.796699,00002.539039,00002.117480,00002.807595,00002.925025,00003.019343,00002.841351,00003.332095,00002.862190,00002.537048,-00001.834749,-00000.312857,-00000.676133,-00000.102574,-00000.087985,-00000.228488
0000000001254,00002.796682,00002.540057,00002.117868,00002.807401,00002.925298,00003.019390,00002.841596,00003.332120,00002.862288,00002.537426,-00001.852549,-00000.314342,-00000.677017,-00000.104073,-00000.091440,-00000.225587
0000000001255,00002.796590,00002.540602,00002.118604,00002.806955,00002.925426,00003.019142,00002.841496,00003.332188,00002.862138,00002.537457,-00001.869207,-00000.315675,-00000.678262,-00000.105824,-00000.094492,-00000.222447
0000000001256,00002.796576,00002.540744,00002.119297,00002.806064,00002.925657,00003.018819,00002.841342,00003.332209,00002.861859,00002.537416,-00001.884724,-00000.316939,-00000.679378,-00000.107463,-00000.096708,-00000.219615
0000000001257,00002.796861,00002.541208,00002.119560,00002.806047,00002.925404,00003.018970,00002.841619,00003.332267,00002.862094,00002.537442,-00001.899267,-00000.318800,-00000.680438,-00000.108953,-00000.097855,-00000.216941
0000000001258,00002.797211,00002.541328,00002.119787,00002.805652,00002.925238,00003.019058,00002.841488,00003.332648,00002.862220,00002.537407,-00001.913928,-00000.320964,-00000.681750,-00000.111074,-00000.099016,-00000.215981
0000000001259,00002.797454,00002.541723,00002.120011,00002.805274,00002.925385,00003.019187,00002.841361,00003.333059,00002.862057,00002.537791,-00001.928123,-00000.323636,-00000.683378,-00000.113431,-00000.101081,-00000.215882
0000000001260,00002.797752,00002.542551,00002.119842,00002.804938,00002.925244,00003.019262,00002.841250,00003.333384,00002.861801,00002.537762,-00001.941691,-00000.326204,-00000.684496,-00000.115236,-00000.103883,-00000.215791
0000000001261,00002.797596,00002.544339,00002.119307,00002.803528,00002.925369,00003.019009,00002.841505,00003.333371,00002.862025,00002.537364,-00001.954501,-00000.329205,-00000.685156,-00000.116880,-00000.108181,-00000.217158
0000000001262,00002.797850,00002.546858,00002.119163,00002.801427,00002.925612,00003.019435,00002.841410,00003.333648,00002.862533,00002.536613,-00001.967503,-00000.332842,-00000.685744,-00000.118780,-00000.112743,-00000.221796
0000000001263,00002.797717,00002.549831,00002.118708,00002.799139,00002.926081,00003.019583,00002.841990,00003.334000,00002.863087,00002.535911,-00001.979859,-00000.336848,-00000.686669,-00000.120905,-00000.116764,-00000.226950
0000000001264,00002.797933,00002.553063,00002.117859,00002.797351,00002.925925,00003.019946,00002.841909,00003.333872,00002.863519,00002.534909,-00001.990566,-00000.340670,-00000.687533,-00000.123248,-00000.120648,-00000.231624
0000000001265,00002.797820,00002.555594,00002.117472,00002.795040,00002.925961,00003.019708,00002.842040,00003.333809,00002.863990,00002.533949,-00001.999996,-00000.344080,-00000.688320,-00000.125419,-00000.124071,-00000.236012
0000000001266,00002.798004,00002.558346,00002.117112,00002.792792,00002.926554,00003.019655,00002.842334,00003.334063,00002.864358,00002.533459,-00002.009473,-00000.347334,-00000.688330,-00000.127414,-00000.127015,-00000.240717
0000000001267,00002.797908,00002.560864,00002.116420,00002.791187,00002.926222,00003.019816,00002.842082,00003.334010,00002.864759,00002.532279,-00002.017501,-00000.349874,-00000.687186,-00000.128900,-00000.129566,-00000.247355
0000000001268,00002.797339,00002.563206,00002.115388,00002.789637,00002.926002,00003.019770,00002.841970,00003.333863,00002.865073,00002.531499,-00002.023029,-00000.351918,-00000.685743,-00000.129872,-00000.132072,-00000.253537
