0000000000766,00002.670962,00001.993144,00001.943540,00003.036109,00002.806981,00002.936705,00002.721193,00003.205834,00002.637142,00002.666457,-00000.517351,-00000.074306,-00000.547599,00000.062664,00000.010153,00000.011527
0000000000767,00002.671242,00001.992490,00001.941569,00003.035532,00002.806623,00002.936273,00002.721009,00003.205508,00002.636909,00002.665983,-00000.517749,-00000.074594,-00000.547892,00000.061981,00000.009804,00000.010664
0000000000768,00002.671774,00001.992440,00001.940779,00003.034865,00002.806432,00002.936095,00002.721066,00003.205474,00002.636815,00002.666124,-00000.518059,-00000.075229,-00000.548162,00000.061327,00000.009368,00000.009813
0000000000769,00002.672375,00001.992608,00001.940553,00003.034012,00002.806853,00002.935726,00002.721272,00003.205559,00002.636617,00002.666447,-00000.518397,-00000.075836,-00000.548774,00000.060383,00000.009071,00000.009078
0000000000770,00002.672102,00001.992929,00001.939880,00003.033807,00002.806327,00002.935212,00002.721320,00003.204804,00002.636900,00002.665479,-00000.518661,-00000.076377,-00000.549367,00000.059464,00000.008701,00000.008353
0000000000771,00002.672251,00001.993072,00001.939324,00003.033443,00002.806323,00002.934535,00002.721496,00003.204151,00002.636731,00002.665390,-00000.518949,-00000.076895,-00000.549526,00000.059023,00000.008811,00000.008091
0000000000772,00002.672745,00001.993345,00001.939478,00003.033269,00002.806238,00002.934460,00002.721174,00003.204234,00002.636609,00002.665655,-00000.519174,-00000.077355,-00000.550030,00000.058603,00000.008496,00000.007474
0000000000773,00002.672871,00001.993830,00001.940093,00003.032959,00002.805872,00002.934247,00002.721323,00003.204041,00002.636828,00002.665579,-00000.519419,-00000.077433,-00000.550528,00000.057865,00000.008226,00000.006888
0000000000774,00002.672929,00001.994788,00001.940586,00003.033536,00002.805800,00002.934183,00002.721775,00003.204112,00002.637088,00002.665442,-00000.519610,-00000.077825,-00000.550595,00000.057507,00000.007958,00000.006363
0000000000775,00002.673399,00001.995200,00001.941473,00003.033272,00002.806213,00002.934002,00002.721902,00003.204310,00002.636911,00002.665741,-00000.519457,-00000.078253,-00000.551019,00000.056879,00000.007729,00000.005863
0000000000776,00002.673811,00001.996016,00001.942618,00003.033038,00002.806515,00002.933947,00002.721924,00003.204370,00002.636769,00002.665986,-00000.519619,-00000.078587,-00000.551438,00000.056212,00000.007137,00000.005054
0000000000777,00002.674211,00001.996367,00001.943373,00003.032814,00002.806504,00002.933793,00002.721670,00003.204539,00002.636619,00002.666240,-00000.519488,-00000.079315,-00000.551799,00000.055677,00000.006579,00000.004266
0000000000778,00002.674562,00001.997061,00001.943985,00003.033340,00002.806761,00002.933746,00002.722051,00003.204591,00002.636861,00002.666450,-00000.519264,-00000.079599,-00000.552156,00000.055109,00000.006076,00000.003577
0000000000779,00002.674903,00001.997360,00001.944265,00003.033512,00002.806389,00002.933978,00002.721834,00003.204734,00002.636733,00002.666303,-00000.519515,-00000.079856,-00000.552463,00000.054653,00000.005601,00000.002906
0000000000780,00002.675201,00001.997588,00001.944786,00003.033597,00002.806245,00002.934301,00002.721796,00003.204778,00002.636576,00002.666844,-00000.519324,-00000.080097,-00000.552767,00000.054170,00000.005172,00000.002319
0000000000781,00002.675854,00001.997843,00001.945387,00003.033743,00002.806291,00002.934498,00002.721974,00003.204900,00002.636467,00002.667082,-00000.519175,-00000.080316,-00000.552666,00000.054145,00000.005131,00000.001748
0000000000782,00002.676108,00001.998400,00001.945468,00003.033453,00002.806168,00002.934048,00002.721942,00003.204575,00002.636696,00002.666817,-00000.519013,-00000.080522,-00000.552562,00000.053734,00000.005129,00000.001249
0000000000783,00002.676301,00001.998617,00001.945980,00003.033214,00002.806570,00002.933852,00002.722094,00003.204679,00002.636604,00002.667020,-00000.518523,-00000.080708,-00000.552476,00000.053350,00000.004731,00000.000400
0000000000784,00002.676155,00001.999091,00001.945686,00003.032967,00002.806466,00002.933469,00002.722066,00003.204039,00002.636436,00002.666794,-00000.518022,-00000.080520,-00000.552387,00000.052999,00000.004366,-00000.000388
0000000000785,00002.676319,00001.999276,00001.945396,00003.033127,00002.806445,00002.933666,00002.721833,00003.204127,00002.636357,00002.666967,-00000.517605,-00000.080679,-00000.552314,00000.052672,00000.004027,-00000.001111
0000000000786,00002.676194,00001.999679,00001.945145,00003.032916,00002.806356,00002.933339,00002.721809,00003.203945,00002.636577,00002.667137,-00000.517179,-00000.080882,-00000.552239,00000.052374,00000.003717,-00000.001782
0000000000787,00002.675972,00001.999836,00001.944899,00003.032327,00002.806338,00002.932781,00002.721973,00003.203658,00002.636510,00002.667284,-00000.516824,-00000.081017,-00000.552176,00000.052096,00000.003428,-00000.002759
0000000000788,00002.675865,00002.000180,00001.945048,00003.032148,00002.806263,00002.932503,00002.721953,00003.203503,00002.636697,00002.667067,-00000.516098,-00000.080827,-00000.552112,00000.051842,00000.003164,-00000.003693
0000000000789,00002.676401,00002.000314,00001.945564,00003.032009,00002.806248,00002.932754,00002.721730,00003.203621,00002.636640,00002.667192,-00000.515433,-00000.080579,-00000.552059,00000.051605,00000.002919,-00000.004526
0000000000790,00002.676311,00002.000969,00001.945691,00003.031856,00002.806183,00002.932517,00002.721713,00003.203489,00002.636800,00002.667007,-00000.514815,-00000.080780,-00000.552004,00000.051389,00000.002694,-00000.005321
0000000000791,00002.676404,00002.001808,00001.946130,00003.031738,00002.806534,00002.932368,00002.721886,00003.203227,00002.637114,00002.667113,-00000.514249,-00000.080932,-00000.551959,00000.051187,00000.002485,-00000.006030
0000000000792,00002.677053,00002.002366,00001.946964,00003.031608,00002.806841,00002.932529,00002.721871,00003.203478,00002.636887,00002.667681,-00000.513723,-00000.081103,-00000.551912,00000.051003,00000.001930,-00000.006706
0000000000793,00002.676770,00002.003081,00001.947338,00003.031870,00002.806777,00002.932039,00002.722018,00003.203254,00002.637154,00002.667772,-00000.513241,-00000.081232,-00000.551874,00000.050832,00000.001752,-00000.007673
0000000000794,00002.676959,00002.003193,00001.948410,00003.031760,00002.806676,00002.932176,00002.721643,00003.203468,00002.636961,00002.667892,-00000.512793,-00000.081378,-00000.551834,00000.050675,00000.001643,-00000.008612
0000000000795,00002.677081,00002.003801,00001.949454,00003.031620,00002.806621,00002.932122,00002.721768,00003.203278,00002.637189,00002.667970,-00000.512383,-00000.081488,-00000.551801,00000.050529,00000.001492,-00000.009434
0000000000796,00002.677605,00002.004260,00001.950730,00003.031889,00002.806535,00002.932602,00002.721449,00003.203459,00002.637387,00002.668072,-00000.512002,-00000.081612,-00000.551768,00000.050395,00000.001399,-00000.010233
0000000000797,00002.677708,00002.004778,00001.951981,00003.032133,00002.806125,00002.932918,00002.721193,00003.203660,00002.637581,00002.668138,-00000.511653,-00000.081706,-00000.551740,00000.050271,00000.001270,-00000.010934
0000000000798,00002.677792,00002.005168,00001.953431,00003.032361,00002.806053,00002.932601,00002.721284,00003.203452,00002.637749,00002.668588,-00000.511328,-00000.081811,-00000.551711,00000.050157,00000.001191,-00000.011614
0000000000799,00002.677517,00002.005971,00001.954858,00003.032569,00002.806067,00002.932145,00002.721428,00003.203260,00002.638277,00002.669007,-00000.511031,-00000.081891,-00000.551687,00000.050052,00000.001444,-00000.012210
0000000000800,00002.677588,00002.006303,00001.956818,00003.033126,00002.806004,00002.932600,00002.721506,00003.203446,00002.638421,00002.669390,-00000.510755,-00000.081981,-00000.551663,00000.049955,00000.001377,-00000.012789
0000000000801,00002.677717,00002.006988,00001.959122,00003.033666,00002.806016,00002.932575,00002.721629,00003.203645,00002.638507,00002.670109,-00000.510502,-00000.082049,-00000.551642,00000.049865,00000.001229,-00000.013297
0000000000802,00002.677777,00002.007633,00001.961152,00003.034141,00002.805964,00002.932600,00002.721695,00003.203803,00002.638630,00002.670436,-00000.510266,-00000.082125,-00000.551622,00000.049782,00000.001172,-00000.014153
0000000000803,00002.677524,00002.008578,00001.962751,00003.034963,00002.805611,00002.932941,00002.721800,00003.203611,00002.639066,00002.670685,-00000.510051,-00000.082183,-00000.551967,00000.049343,00000.001046,-00000.014947
0000000000804,00002.677213,00002.009853,00001.964480,00003.035729,00002.805566,00002.933325,00002.721856,00003.203382,00002.639533,00002.670963,-00000.510214,-00000.082611,-00000.551950,00000.048910,00000.000635,-00000.015676
0000000000805,00002.677360,00002.011021,00001.966566,00003.036792,00002.805991,00002.933978,00002.722308,00003.203581,00002.640267,00002.671538,-00000.510030,-00000.082660,-00000.551881,00000.048536,00000.000528,-00000.016353
0000000000806,00002.677095,00002.012106,00001.968401,00003.037445,00002.806316,00002.934305,00002.722355,00003.203749,00002.640665,00002.672138,-00000.509806,-00000.082662,-00000.552229,00000.048167,00000.000178,-00000.016973
0000000000807,00002.677221,00002.012737,00001.970177,00003.037624,00002.806678,00002.934498,00002.722378,00003.203918,00002.640927,00002.672627,-00000.509650,-00000.082704,-00000.552533,00000.047849,-00000.000276,-00000.017549
0000000000808,00002.677721,00002.013299,00001.971739,00003.038180,00002.806228,00002.935139,00002.722055,00003.204062,00002.641266,00002.673137,-00000.509459,-00000.082705,-00000.552466,00000.047535,-00000.000574,-00000.018077
0000000000809,00002.677827,00002.014562,00001.973251,00003.039058,00002.806174,00002.935667,00002.722437,00003.204206,00002.641852,00002.673554,-00000.509326,-00000.082741,-00000.552725,00000.046901,-00000.000961,-00000.018567
0000000000810,00002.677890,00002.015402,00001.974580,00003.039531,00002.806517,00002.935850,00002.722888,00003.204328,00002.642502,00002.674351,-00000.509163,-00000.082742,-00000.553031,00000.046634,-00000.000852,-00000.019017
0000000000811,00002.677981,00002.016114,00001.975867,00003.039915,00002.806833,00002.936299,00002.723213,00003.204813,00002.642639,00002.675069,-00000.509050,-00000.082772,-00000.553252,00000.046095,-00000.001181,-00000.019434
0000000000812,00002.678397,00002.016467,00001.976999,00003.040318,00002.806763,00002.936817,00002.723235,00003.205280,00002.642830,00002.675748,-00000.508911,-00000.082773,-00000.553512,00000.045867,-00000.001451,-00000.019817
0000000000813,00002.678838,00002.017436,00001.978095,00003.041371,00002.806669,00002.937199,00002.723148,00003.205330,00002.643309,00002.676358,-00000.508815,-00000.082799,-00000.553337,00000.045771,-00000.001731,-00000.020535
0000000000814,00002.679192,00002.018462,00001.979058,00003.042440,00002.806609,00002.937641,00002.723167,00003.205727,00002.643834,00002.676936,-00000.508697,-00000.082800,-00000.553196,00000.045577,-00000.001961,-00000.021224
0000000000815,00002.679567,00002.018925,00001.980354,00003.042611,00002.806529,00002.937966,00002.722730,00003.206133,00002.643879,00002.677456,-00000.508615,-00000.082822,-00000.553410,00000.045495,-00000.002199,-00000.021472
0000000000816,00002.679506,00002.019435,00001.981537,00003.042795,00002.806841,00002.937979,00002.722746,00003.206471,00002.643964,00002.677948,-00000.508515,-00000.082822,-00000.553653,00000.045330,-00000.002395,-00000.021696
0000000000817,00002.679462,00002.020191,00001.982640,00003.043666,00002.806773,00002.938256,00002.722737,00003.206454,00002.644365,00002.678028,-00000.508445,-00000.082841,-00000.553835,00000.045260,-00000.002597,-00000.021907
0000000000818,00002.679773,00002.020989,00001.984010,00003.044185,00002.807038,00002.938630,00002.723113,00003.206742,00002.644437,00002.678809,-00000.508360,-00000.082842,-00000.554041,00000.045120,-00000.002401,-00000.022097
0000000000819,00002.679735,00002.021995,00001.985312,00003.044926,00002.807344,00002.938866,00002.723469,00003.206727,00002.645141,00002.679240,-00000.508300,-00000.082857,-00000.554196,00000.044697,-00000.002574,-00000.022278
0000000000820,00002.680000,00002.022674,00001.986841,00003.045731,00002.807206,00002.939184,00002.723063,00003.206972,00002.645202,00002.679543,-00000.508227,-00000.082858,-00000.554372,00000.044215,-00000.002770,-00000.022440
0000000000821,00002.679968,00002.023169,00001.987949,00003.046363,00002.807103,00002.939385,00002.723003,00003.206959,00002.645439,00002.679547,-00000.508177,-00000.082872,-00000.554504,00000.043855,-00000.002917,-00000.022593
0000000000822,00002.680193,00002.023746,00001.989251,00003.047048,00002.807350,00002.939656,00002.723021,00003.207531,00002.645854,00002.680167,-00000.508115,-00000.082872,-00000.554654,00000.043445,-00000.003084,-00000.022731
0000000000823,00002.680892,00002.024167,00001.990919,00003.047948,00002.807987,00002.940189,00002.723332,00003.208246,00002.646055,00002.680896,-00000.508072,-00000.082883,-00000.554766,00000.043139,-00000.003571,-00000.022861
0000000000824,00002.681084,00002.024659,00001.991665,00003.048532,00002.807834,00002.940783,00002.723347,00003.208369,00002.646408,00002.680698,-00000.508019,-00000.082884,-00000.554894,00000.042789,-00000.004076,-00000.022979
0000000000825,00002.680953,00002.025017,00001.991997,00003.048572,00002.808014,00002.940874,00002.723613,00003.208615,00002.646580,00002.680956,-00000.507983,-00000.082894,-00000.554989,00000.042529,-00000.004129,-00000.022727
0000000000826,00002.681116,00002.025436,00001.992269,00003.049069,00002.807884,00002.941379,00002.723625,00003.208720,00002.646881,00002.680788,-00000.507575,-00000.082894,-00000.555098,00000.042231,-00000.004196,-00000.022827
0000000000827,00002.681367,00002.025741,00001.992915,00003.049466,00002.807675,00002.941457,00002.723488,00003.208567,00002.647027,00002.681007,-00000.507544,-00000.082902,-00000.555179,00000.042009,-00000.004240,-00000.022975
0000000000828,00002.681506,00002.026460,00001.993872,00003.049526,00002.808289,00002.941525,00002.723862,00003.208656,00002.647283,00002.681590,-00000.507559,-00000.082903,-00000.555272,00000.041756,-00000.004297,-00000.023060
0000000000829,00002.681358,00002.027083,00001.994421,00003.049865,00002.808474,00002.941954,00002.724108,00003.208888,00002.647770,00002.681777,-00000.507533,-00000.082910,-00000.555341,00000.041567,-00000.004335,-00000.023187
0000000000830,00002.681476,00002.027332,00001.994873,00003.049916,00002.808634,00002.942374,00002.723701,00003.209328,00002.647988,00002.681910,-00000.507546,-00000.082910,-00000.555419,00000.041352,-00000.004384,-00000.022896
0000000000831,00002.681712,00002.027136,00001.994978,00003.050204,00002.808428,00002.942739,00002.723547,00003.209888,00002.648040,00002.682069,-00000.507524,-00000.082916,-00000.555478,00000.041191,-00000.004416,-00000.022641
0000000000832,00002.681813,00002.026986,00001.995000,00003.050247,00002.808565,00002.942734,00002.723563,00003.209899,00002.647862,00002.682182,-00000.507535,-00000.082916,-00000.555545,00000.041007,-00000.004458,-00000.022394
0000000000833,00002.681651,00002.026819,00001.995090,00003.050130,00002.808753,00002.942682,00002.723433,00003.210376,00002.647906,00002.682680,-00000.507516,-00000.082921,-00000.555596,00000.040871,-00000.004485,-00000.022177
0000000000834,00002.681374,00002.026691,00001.994745,00003.050530,00002.808506,00002.942678,00002.723446,00003.210385,00002.648118,00002.682777,-00000.507526,-00000.082922,-00000.555653,00000.040714,-00000.004883,-00000.021966
0000000000835,00002.681599,00002.026549,00001.994822,00003.050792,00002.809029,00002.942996,00002.723335,00003.210791,00002.647793,00002.683201,-00000.507872,-00000.082926,-00000.555695,00000.040598,-00000.005269,-00000.021782
0000000000836,00002.681726,00002.026441,00001.994529,00003.051133,00002.808819,00002.943355,00002.723347,00003.210799,00002.647974,00002.683283,-00000.507880,-00000.082926,-00000.555744,00000.040465,-00000.005245,-00000.021602
0000000000837,00002.681555,00002.026683,00001.994231,00003.051356,00002.808538,00002.943264,00002.723252,00003.210782,00002.648422,00002.683281,-00000.507812,-00000.082930,-00000.556143,00000.040366,-00000.005211,-00000.021808
0000000000838,00002.681663,00002.026590,00001.993981,00003.051646,00002.808359,00002.943570,00002.723262,00003.210789,00002.648576,00002.682988,-00000.507819,-00000.082930,-00000.556184,00000.040252,-00000.005554,-00000.021655
0000000000839,00002.681154,00002.026433,00001.993728,00003.051474,00002.808120,00002.943129,00002.723182,00003.210412,00002.648595,00002.682987,-00000.507762,-00000.082933,-00000.556161,00000.040168,-00000.005888,-00000.021830
0000000000840,00002.680883,00002.026354,00001.993515,00003.051720,00002.807968,00002.943026,00002.723190,00003.210417,00002.648726,00002.683100,-00000.508130,-00000.082933,-00000.556197,00000.040072,-00000.006179,-00000.021700
0000000000841,00002.681176,00002.026221,00001.993662,00003.051573,00002.808127,00002.943014,00002.723122,00003.210459,00002.648379,00002.683462,-00000.508444,-00000.082936,-00000.556177,00000.040000,-00000.006101,-00000.021486
0000000000842,00002.680945,00002.026153,00001.993481,00003.051783,00002.807998,00002.942927,00002.723129,00003.210101,00002.648491,00002.683195,-00000.508395,-00000.082936,-00000.556207,00000.039918,-00000.005986,-00000.021376
0000000000843,00002.680832,00002.026040,00001.993244,00003.052021,00002.807771,00002.942553,00002.722707,00003.209774,00002.648558,00002.682778,-00000.508299,-00000.082938,-00000.556553,00000.039856,-00000.006282,-00000.021194
0000000000844,00002.680998,00002.025620,00001.993090,00003.051837,00002.807661,00002.942116,00002.722351,00003.209832,00002.648290,00002.682914,-00000.508258,-00000.082938,-00000.556941,00000.039787,-00000.006547,-00000.021100
0000000000845,00002.681264,00002.025523,00001.992887,00003.051677,00002.807830,00002.942161,00002.722718,00003.209916,00002.647985,00002.683284,-00000.508176,-00000.082940,-00000.556873,00000.039734,-00000.006436,-00000.020944
0000000000846,00002.681043,00002.025891,00001.992756,00003.051520,00002.808099,00002.941789,00002.723140,00003.209965,00002.648120,00002.683399,-00000.508141,-00000.082940,-00000.556841,00000.039675,-00000.006662,-00000.020864
0000000000847,00002.680907,00002.026171,00001.992584,00003.051747,00002.808243,00002.941465,00002.723452,00003.210037,00002.648586,00002.683352,-00000.508434,-00000.082942,-00000.557146,00000.039631,-00000.006930,-00000.020732
0000000000848,00002.681082,00002.026122,00001.992473,00003.051613,00002.808472,00002.941511,00002.723811,00003.210442,00002.648338,00002.683813,-00000.508404,-00000.082942,-00000.557481,00000.039580,-00000.006760,-00000.020664
0000000000849,00002.680966,00002.025998,00001.992326,00003.051443,00002.808595,00002.941234,00002.724077,00003.210140,00002.648372,00002.683772,-00000.508654,-00000.082944,-00000.557378,00000.039542,-00000.006625,-00000.020552
0000000000850,00002.681114,00002.025593,00001.992231,00003.051330,00002.808790,00002.941273,00002.724020,00003.210122,00002.648160,00002.683802,-00000.508991,-00000.082944,-00000.557300,00000.039499,-00000.006843,-00000.020494
0000000000851,00002.681015,00002.025850,00001.992106,00003.051547,00002.808894,00002.941401,00002.724247,00003.209865,00002.648552,00002.684130,-00000.509203,-00000.082945,-00000.557575,00000.039467,-00000.007091,-00000.020761
0000000000852,00002.681142,00002.025506,00001.992025,00003.051451,00002.809060,00002.941434,00002.724198,00003.209850,00002.648372,00002.684156,-00000.509490,-00000.082945,-00000.557509,00000.039430,-00000.006914,-00000.021074
0000000000853,00002.681058,00002.025724,00001.991919,00003.051636,00002.809149,00002.941543,00002.724391,00003.209994,00002.648705,00002.684072,-00000.509309,-00000.082946,-00000.557743,00000.039403,-00000.006762,-00000.021302
0000000000854,00002.681166,00002.025794,00001.991850,00003.051917,00002.808928,00002.941934,00002.723987,00003.210343,00002.648915,00002.684457,-00000.509190,-00000.083309,-00000.557687,00000.039009,-00000.006974,-00000.021568
0000000000855,00002.681094,00002.025980,00001.992485,00003.052075,00002.809003,00002.941664,00002.724151,00003.210103,00002.649199,00002.684749,-00000.509035,-00000.083310,-00000.557524,00000.038986,-00000.006845,-00000.021762
0000000000856,00002.680823,00002.026402,00001.993515,00003.052314,00002.809540,00002.941634,00002.724533,00003.210038,00002.649740,00002.685076,-00000.509297,-00000.083618,-00000.557839,00000.038650,-00000.006663,-00000.021989
0000000000857,00002.680762,00002.026561,00001.994056,00003.052811,00002.809242,00002.941767,00002.724310,00003.209833,00002.649982,00002.684962,-00000.509528,-00000.083982,-00000.558062,00000.038268,-00000.006916,-00000.022154
0000000000858,00002.680531,00002.027283,00001.994570,00003.053377,00002.809337,00002.942104,00002.724634,00003.209778,00002.650443,00002.684878,-00000.509751,-00000.084245,-00000.558331,00000.037982,-00000.007123,-00000.022710
0000000000859,00002.680479,00002.027780,00001.995393,00003.053800,00002.809445,00002.942217,00002.724444,00003.209604,00002.650648,00002.684780,-00000.509948,-00000.084554,-00000.558521,00000.037656,-00000.007338,-00000.022850
0000000000860,00002.680646,00002.028395,00001.996193,00003.054282,00002.809526,00002.942504,00002.724358,00003.209920,00002.650678,00002.685071,-00000.510138,-00000.084778,-00000.558749,00000.037776,-00000.007515,-00000.022961
0000000000861,00002.680964,00002.028456,00001.996894,00003.054643,00002.809618,00002.942963,00002.724197,00003.210497,00002.650490,00002.685351,-00000.510305,-00000.085042,-00000.558911,00000.037499,-00000.007698,-00000.023080
0000000000862,00002.681469,00002.028979,00001.997938,00003.055416,00002.809687,00002.943571,00002.724123,00003.211128,00002.650878,00002.685236,-00000.510467,-00000.085232,-00000.559106,00000.037238,-00000.007849,-00000.023175
0000000000863,00002.681377,00002.029394,00001.998171,00003.055722,00002.809766,00002.943599,00002.723985,00003.210894,00002.651081,00002.685112,-00000.510609,-00000.085457,-00000.559243,00000.037002,-00000.008368,-00000.023276
0000000000864,00002.681444,00002.029477,00001.998697,00003.056018,00002.809824,00002.943390,00002.723923,00003.211069,00002.651048,00002.685377,-00000.510747,-00000.085619,-00000.559409,00000.036780,-00000.008858,-00000.023357
0000000000865,00002.681729,00002.029467,00001.999259,00003.055916,00002.810254,00002.943777,00002.723806,00003.211596,00002.650858,00002.685271,-00000.510868,-00000.085810,-00000.559526,00000.036579,-00000.009300,-00000.023443
0000000000866,00002.681785,00002.029900,00001.999707,00003.056167,00002.810303,00002.943962,00002.723753,00003.211744,00002.651193,00002.685133,-00000.510985,-00000.085948,-00000.559667,00000.036390,-00000.009718,-00000.023874
0000000000867,00002.682028,00002.030254,00002.000185,00003.056807,00002.810307,00002.944291,00002.723653,00003.212192,00002.651394,00002.685043,-00000.511089,-00000.086110,-00000.559767,00000.035856,-00000.010094,-00000.024311
0000000000868,00002.681713,00002.030986,00002.000566,00003.057383,00002.810711,00002.944449,00002.723970,00003.212319,00002.652042,00002.684926,-00000.511188,-00000.086228,-00000.559887,00000.035695,-00000.010450,-00000.024315
0000000000869,00002.681557,00002.031651,00002.000973,00003.057565,00002.811077,00002.944366,00002.724248,00003.212701,00002.652576,00002.685212,-00000.511276,-00000.086366,-00000.559972,00000.035603,-00000.010770,-00000.024324
0000000000870,00002.681652,00002.032273,00002.001661,00003.057693,00002.811422,00002.944137,00002.724518,00003.212446,00002.652765,00002.685113,-00000.511361,-00000.086466,-00000.560074,00000.035466,-00000.011072,-00000.024690
0000000000871,00002.681519,00002.032839,00002.002007,00003.057847,00002.811733,00002.944430,00002.724755,00003.212770,00002.653220,00002.685356,-00000.511436,-00000.086584,-00000.560147,00000.035388,-00000.011345,-00000.025060
0000000000872,00002.681600,00002.033006,00002.002230,00003.058319,00002.811664,00002.944961,00002.724622,00003.213279,00002.653743,00002.685272,-00000.511508,-00000.086669,-00000.560234,00000.035271,-00000.011603,-00000.025009
0000000000873,00002.682212,00002.033125,00002.002887,00003.058813,00002.811929,00002.945573,00002.724461,00003.213918,00002.653768,00002.685479,-00000.511209,-00000.086770,-00000.560295,00000.035205,-00000.011835,-00000.024599
0000000000874,00002.681918,00002.033630,00002.003077,00003.059215,00002.811870,00002.946025,00002.724711,00003.213988,00002.654213,00002.685407,-00000.511271,-00000.086842,-00000.560369,00000.035106,-00000.012054,-00000.024193
0000000000875,00002.682440,00002.033732,00002.003274,00003.059273,00002.812458,00002.946183,00002.724936,00003.214532,00002.654234,00002.685583,-00000.511379,-00000.086928,-00000.560422,00000.035412,-00000.012252,-00000.023481
0000000000876,00002.682552,00002.033799,00002.003435,00003.059252,00002.812408,00002.946205,00002.724786,00003.214592,00002.654251,00002.685522,-00000.511069,-00000.086989,-00000.560485,00000.035690,-00000.012438,-00000.023135
0000000000877,00002.682996,00002.034248,00002.004328,00003.059301,00002.812546,00002.946339,00002.724978,00003.215055,00002.654268,00002.685672,-00000.511161,-00000.087062,-00000.560529,00000.035951,-00000.012607,-00000.022891
0000000000878,00002.683092,00002.035031,00002.004828,00003.059646,00002.813228,00002.946358,00002.725576,00003.215106,00002.654645,00002.685983,-00000.511259,-00000.087115,-00000.560583,00000.036188,-00000.012766,-00000.022597
0000000000879,00002.682744,00002.035413,00002.005226,00003.060051,00002.813346,00002.946110,00002.725739,00003.215138,00002.655023,00002.685748,-00000.511338,-00000.087176,-00000.560621,00000.036410,-00000.012909,-00000.022390
0000000000880,00002.683188,00002.035717,00002.006015,00003.060708,00002.813202,00002.946126,00002.725522,00003.215544,00002.654981,00002.685649,-00000.511421,-00000.087221,-00000.560667,00000.036611,-00000.013044,-00000.022502
0000000000881,00002.683255,00002.036042,00002.006353,00003.061415,00002.812939,00002.946277,00002.725299,00003.215571,00002.655302,00002.685449,-00000.511125,-00000.086911,-00000.560699,00000.036800,-00000.013166,-00000.022326
0000000000882,00002.683270,00002.036663,00002.006662,00003.061974,00002.813179,00002.946291,00002.725477,00003.215554,00002.655630,00002.685365,-00000.511197,-00000.086949,-00000.560738,00000.036972,-00000.013281,-00000.022058
0000000000883,00002.683327,00002.036940,00002.006587,00003.062576,00002.812955,00002.946420,00002.725286,00003.215576,00002.655540,00002.685195,-00000.511308,-00000.087048,-00000.560766,00000.037133,-00000.013385,-00000.021908
0000000000884,00002.682978,00002.037106,00002.006850,00003.062689,00002.813160,00002.946068,00002.725438,00003.215562,00002.655819,00002.685124,-00000.511368,-00000.087080,-00000.560799,00000.037279,-00000.013483,-00000.021318
0000000000885,00002.683026,00002.037342,00002.007149,00003.063565,00002.812969,00002.946178,00002.725276,00003.215581,00002.655743,00002.684616,-00000.511463,-00000.087164,-00000.560822,00000.037416,-00000.013571,-00000.020827
0000000000886,00002.683091,00002.037121,00002.007735,00003.064024,00002.813143,00002.946605,00002.725042,00003.215932,00002.655617,00002.684918,-00000.511152,-00000.087192,-00000.560487,00000.037540,-00000.013655,-00000.020325
0000000000887,00002.683495,00002.037321,00002.008353,00003.064406,00002.812981,00002.946698,00002.724904,00003.216311,00002.655553,00002.685212,-00000.510869,-00000.087264,-00000.560507,00000.037657,-00000.013367,-00000.020270
0000000000888,00002.683188,00002.037859,00002.008489,00003.064797,00002.813129,00002.946699,00002.725068,00003.216247,00002.655809,00002.685469,-00000.510604,-00000.087287,-00000.560223,00000.037763,-00000.013076,-00000.020205
0000000000889,00002.683169,00002.037667,00002.008652,00003.064760,00002.812991,00002.946778,00002.724951,00003.216570,00002.655754,00002.685356,-00000.510727,-00000.086985,-00000.560240,00000.037862,-00000.012831,-00000.020158
0000000000890,00002.683270,00002.037761,00002.009131,00003.064730,00002.813117,00002.946778,00002.724728,00003.216877,00002.655609,00002.685212,-00000.510501,-00000.087005,-00000.559997,00000.037952,-00000.012582,-00000.020103
0000000000891,00002.682891,00002.037961,00002.009270,00003.065061,00002.812999,00002.946483,00002.724990,00003.216427,00002.655925,00002.685116,-00000.510605,-00000.087111,-00000.559649,00000.038036,-00000.012737,-00000.020063
0000000000892,00002.682977,00002.038041,00002.009315,00003.065398,00002.812744,00002.946484,00002.724800,00003.216326,00002.655801,00002.684993,-00000.510776,-00000.087128,-00000.559442,00000.038113,-00000.012525,-00000.020016
0000000000893,00002.683017,00002.038211,00002.009433,00003.065680,00002.812644,00002.946595,00002.724661,00003.216305,00002.655707,00002.684911,-00000.510502,-00000.086855,-00000.559146,00000.038185,-00000.012294,-00000.019982
0000000000894,00002.683091,00002.037916,00002.009471,00003.065604,00002.812426,00002.946595,00002.724137,00003.216220,00002.655602,00002.684807,-00000.510285,-00000.086507,-00000.558970,00000.038250,-00000.012114,-00000.019942
0000000000895,00002.683125,00002.038061,00002.009572,00003.065481,00002.812704,00002.946690,00002.724381,00003.216565,00002.655522,00002.685100,-00000.510051,-00000.086275,-00000.558718,00000.038312,-00000.011917,-00000.019913
0000000000896,00002.683187,00002.037810,00002.009241,00003.065779,00002.812519,00002.946691,00002.724297,00003.216854,00002.655433,00002.685011,-00000.509866,-00000.085978,-00000.558568,00000.038367,-00000.011764,-00000.019879
0000000000897,00002.682854,00002.037933,00002.008964,00003.066038,00002.812755,00002.946771,00002.724505,00003.216785,00002.655728,00002.684898,-00000.509668,-00000.085781,-00000.558353,00000.038419,-00000.011596,-00000.019854
0000000000898,00002.682907,00002.038083,00002.008683,00003.066292,00002.812598,00002.946772,00002.724434,00003.216669,00002.655652,00002.684459,-00000.509510,-00000.085528,-00000.558226,00000.038467,-00000.011466,-00000.019825
0000000000899,00002.682986,00002.037825,00002.008810,00003.066149,00002.812799,00002.946478,00002.724248,00003.216611,00002.655540,00002.684363,-00000.509341,-00000.085360,-00000.558043,00000.038511,-00000.011323,-00000.019804
0000000000900,00002.683031,00002.037589,00002.008933,00003.066365,00002.813027,00002.946478,00002.724188,00003.216512,00002.655112,00002.684715,-00000.509207,-00000.085145,-00000.557934,00000.038551,-00000.011212,-00000.020142
0000000000901,00002.683098,00002.037732,00002.008678,00003.066969,00002.812836,00002.946953,00002.724392,00003.216462,00002.655380,00002.684633,-00000.509063,-00000.085002,-00000.557779,00000.038226,-00000.011090,-00000.020124
0000000000902,00002.682774,00002.037895,00002.008058,00003.067153,00002.812668,00002.946953,00002.724341,00003.216378,00002.655379,00002.684570,-00000.508949,-00000.084819,-00000.557686,00000.038261,-00000.010996,-00000.020412
0000000000903,00002.682468,00002.038017,00002.007841,00003.067304,00002.812868,00002.946995,00002.724515,00003.216335,00002.655606,00002.684501,-00000.508826,-00000.084697,-00000.557554,00000.038347,-00000.010892,-00000.020760
0000000000904,00002.682918,00002.038155,00002.008038,00003.067461,00002.812724,00002.947358,00002.724471,00003.216626,00002.655605,00002.684447,-00000.508366,-00000.084542,-00000.557475,00000.038376,-00000.010812,-00000.021005
0000000000905,00002.683020,00002.037896,00002.007854,00003.067227,00002.812894,00002.947394,00002.724257,00003.216590,00002.655074,00002.684750,-00000.508262,-00000.084438,-00000.557362,00000.038449,-00000.010724,-00000.021664
0000000000906,00002.682677,00002.038013,00002.007659,00003.067360,00002.813135,00002.946977,00002.724582,00003.216112,00002.655436,00002.684705,-00000.508233,-00000.084305,-00000.557295,00000.038474,-00000.010655,-00000.022235
0000000000907,00002.682764,00002.038518,00002.007864,00003.067161,00002.813280,00002.946644,00002.724762,00003.215719,00002.655346,00002.684600,-00000.508144,-00000.084217,-00000.557199,00000.038174,-00000.010580,-00000.022796
0000000000908,00002.682835,00002.038981,00002.008061,00003.066912,00002.813485,00002.946290,00002.725039,00003.215675,00002.655291,00002.684924,-00000.508120,-00000.084104,-00000.557142,00000.037832,-00000.010522,-00000.023645
0000000000909,00002.682910,00002.039411,00002.008236,00003.066742,00002.813608,00002.946007,00002.724830,00003.215340,00002.655215,00002.685198,-00000.508044,-00000.084392,-00000.557061,00000.037576,-00000.010458,-00000.024122
0000000000910,00002.683333,00002.039805,00002.008404,00003.066893,00002.813783,00002.946430,00002.724703,00003.215665,00002.655531,00002.685474,-00000.508023,-00000.084658,-00000.557375,00000.037286,-00000.010771,-00000.024845
0000000000911,00002.683396,00002.040534,00002.008190,00003.067111,00002.813888,00002.946552,00002.724887,00003.215380,00002.655829,00002.685344,-00000.507959,-00000.084903,-00000.557305,00000.037431,-00000.011080,-00000.025614
0000000000912,00002.683393,00002.040869,00002.008333,00003.067239,00002.813674,00002.946913,00002.724779,00003.215657,00002.656098,00002.685216,-00000.507941,-00000.085130,-00000.557210,00000.037183,-00000.010984,-00000.026230
0000000000913,00002.683810,00002.041490,00002.008514,00003.067788,00002.813400,00002.947379,00002.724936,00003.215777,00002.656351,00002.685106,-00000.507524,-00000.084976,-00000.557151,00000.037307,-00000.010883,-00000.026885
0000000000914,00002.683808,00002.042138,00002.008635,00003.067897,00002.813218,00002.947686,00002.724844,00003.215650,00002.656580,00002.684997,-00000.507146,-00000.085169,-00000.557070,00000.037459,-00000.010802,-00000.027409
0000000000915,00002.683800,00002.042666,00002.008789,00003.067639,00002.813348,00002.947721,00002.724978,00003.215752,00002.656796,00002.685266,-00000.506790,-00000.085038,-00000.557019,00000.037564,-00000.010716,-00000.027603
0000000000916,00002.683435,00002.043218,00002.008893,00003.067369,00002.813556,00002.947619,00002.725262,00003.215281,00002.656991,00002.684810,-00000.506468,-00000.084839,-00000.556587,00000.037693,-00000.010284,-00000.027686
0000000000917,00002.683428,00002.043668,00002.009024,00003.067149,00002.813666,00002.947286,00002.725014,00003.215005,00002.656812,00002.684676,-00000.506166,-00000.084727,-00000.556544,00000.037783,-00000.009848,-00000.027852
0000000000918,00002.683481,00002.044138,00002.009474,00003.067282,00002.813480,00002.947199,00002.724893,00003.215330,00002.656615,00002.685014,-00000.505892,-00000.084559,-00000.556540,00000.037893,-00000.009843,-00000.027923
0000000000919,00002.683838,00002.044521,00002.009586,00003.067457,00002.813574,00002.947641,00002.724681,00003.215821,00002.656463,00002.684900,-00000.505634,-00000.084463,-00000.556503,00000.037969,-00000.009835,-00000.027701
0000000000920,00002.683882,00002.044921,00002.009607,00003.067571,00002.814142,00002.947568,00002.725304,00003.215734,00002.656658,00002.685187,-00000.505401,-00000.084320,-00000.556499,00000.038063,-00000.009830,-00000.027399
0000000000921,00002.683823,00002.045247,00002.009702,00003.067720,00002.813859,00002.947581,00002.725486,00003.215426,00002.656528,00002.684727,-00000.505182,-00000.084239,-00000.556468,00000.038128,-00000.009824,-00000.027210
0000000000922,00002.683498,00002.045950,00002.009720,00003.067816,00002.814342,00002.947518,00002.725654,00003.215353,00002.656695,00002.684972,-00000.504983,-00000.084116,-00000.556102,00000.038208,-00000.009820,-00000.026952
0000000000923,00002.683811,00002.045864,00002.009801,00003.067944,00002.814101,00002.947892,00002.725446,00003.215816,00002.656584,00002.684944,-00000.504434,-00000.084047,-00000.555712,00000.038263,-00000.009814,-00000.026792
0000000000924,00002.684260,00002.045738,00002.010179,00003.068026,00002.814149,00002.948202,00002.725226,00003.216117,00002.656363,00002.684789,-00000.503902,-00000.083580,-00000.555401,00000.038694,-00000.009448,-00000.026210
0000000000925,00002.683800,00002.046028,00002.010248,00003.068134,00002.814307,00002.948157,00002.725412,00003.216148,00002.656632,00002.684765,-00000.503434,-00000.083159,-00000.555069,00000.039104,-00000.009080,-00000.025710
0000000000926,00002.683820,00002.046283,00002.010207,00003.068567,00002.814711,00002.948058,00002.725587,00003.216041,00002.656806,00002.684996,-00000.502619,-00000.082761,-00000.554804,00000.039470,-00000.008769,-00000.025215
0000000000927,00002.684154,00002.046167,00002.010628,00003.068659,00002.815209,00002.948383,00002.725746,00003.216431,00002.656672,00002.685338,-00000.501858,-00000.082403,-00000.554159,00000.039819,-00000.008456,-00000.024789
0000000000928,00002.684171,00002.046384,00002.010593,00003.068664,00002.815190,00002.948299,00002.725895,00003.216340,00002.656458,00002.685172,-00000.501164,-00000.082064,-00000.553933,00000.040131,-00000.008190,-00000.024368
0000000000929,00002.683730,00002.045922,00002.010589,00003.068380,00002.815250,00002.948212,00002.725667,00003.216309,00002.655981,00002.685101,-00000.500516,-00000.081759,-00000.553747,00000.040428,-00000.007924,-00000.024006
0000000000930,00002.683381,00002.045744,00002.010196,00003.068385,00002.815234,00002.947778,00002.725794,00003.215868,00002.655798,00002.684959,-00000.499925,-00000.081471,-00000.553554,00000.040694,-00000.007698,-00000.023647
0000000000931,00002.683369,00002.045351,00002.010193,00003.067780,00002.815286,00002.947704,00002.725963,00003.215842,00002.655392,00002.685261,-00000.499373,-00000.080848,-00000.553033,00000.041310,-00000.007471,-00000.023338
0000000000932,00002.683072,00002.044837,00002.010222,00003.067058,00002.815272,00002.947334,00002.726071,00003.215467,00002.654874,00002.684778,-00000.498507,-00000.080240,-00000.552506,00000.041899,-00000.007279,-00000.023033
0000000000933,00002.683061,00002.043777,00002.009856,00003.066543,00002.814953,00002.947272,00002.725489,00003.215445,00002.654529,00002.684672,-00000.497675,-00000.079709,-00000.552063,00000.042423,-00000.007086,-00000.022407
0000000000934,00002.682446,00002.042976,00002.008792,00003.065929,00002.814578,00002.946957,00002.725581,00003.215125,00002.654088,00002.684261,-00000.496575,-00000.078829,-00000.551251,00000.042924,-00000.006559,-00000.021784
0000000000935,00002.682074,00002.042074,00002.007755,00003.065491,00002.814307,00002.947266,00002.725812,00003.214744,00002.654156,00002.683808,-00000.495504,-00000.078015,-00000.550511,00000.043370,-00000.006758,-00000.021252
0000000000936,00002.682276,00002.040667,00002.006849,00003.064605,00002.813625,00002.947361,00002.725164,00003.214835,00002.653418,00002.683095,-00000.494205,-00000.077265,-00000.549820,00000.044160,-00000.006672,-00000.020722
0000000000937,00002.681959,00002.039536,00002.005604,00003.063869,00002.813031,00002.947262,00002.724998,00003.214510,00002.653114,00002.682347,-00000.492930,-00000.076209,-00000.549190,00000.044903,-00000.006841,-00000.020269
0000000000938,00002.681405,00002.037975,00002.004470,00003.062389,00002.812451,00002.946980,00002.725172,00003.214224,00002.652848,00002.682103,-00000.491461,-00000.075209,-00000.548239,00000.045575,-00000.007857,-00000.019817
0000000000939,00002.681136,00002.036286,00002.003772,00003.061037,00002.811946,00002.946532,00002.725030,00003.213948,00002.652226,00002.681466,-00000.490013,-00000.074310,-00000.547703,00000.046207,-00000.008726,-00000.019432
0000000000940,00002.681027,00002.034595,00002.003170,00003.059778,00002.811452,00002.946655,00002.724816,00003.213705,00002.651637,00002.681258,-00000.488400,-00000.073095,-00000.546893,00000.046779,-00000.009954,-00000.019047
0000000000941,00002.680798,00002.033158,00002.002576,00003.058627,00002.811384,00002.946274,00002.724695,00003.213469,00002.651108,00002.680716,-00000.486079,-00000.071604,-00000.546074,00000.047318,-00000.011419,-00000.018719
0000000000942,00002.680342,00002.031718,00002.001700,00003.057917,00002.810601,00002.946378,00002.724513,00003.213262,00002.650969,00002.679813,-00000.483617,-00000.070207,-00000.545385,00000.047805,-00000.013190,-00000.018392
0000000000943,00002.679784,00002.030857,00002.000832,00003.057663,00002.810543,00002.946054,00002.724773,00003.213062,00002.650881,00002.679714,-00000.480915,-00000.068575,-00000.544324,00000.048626,-00000.014800,-00000.017749
0000000000944,00002.679396,00002.029994,00002.000449,00003.057422,00002.810239,00002.945780,00002.724980,00003.212523,00002.650763,00002.679309,-00000.478457,-00000.067023,-00000.543738,00000.049403,-00000.016308,-00000.016382
0000000000945,00002.679284,00002.028898,00002.000436,00003.057205,00002.810190,00002.945867,00002.724839,00003.212715,00002.649963,00002.679588,-00000.475794,-00000.065634,-00000.543198,00000.050102,-00000.017679,-00000.015110
0000000000946,00002.679317,00002.027801,00002.000110,00003.057000,00002.809568,00002.945997,00002.724290,00003.212619,00002.649137,00002.679242,-00000.472976,-00000.064313,-00000.542336,00000.051127,-00000.018599,-00000.013946
0000000000947,00002.678858,00002.026868,00001.999736,00003.056453,00002.809527,00002.945708,00002.724169,00003.212057,00002.648455,00002.679117,-00000.470709,-00000.063493,-00000.541876,00000.051722,-00000.019041,-00000.012500
0000000000948,00002.678523,00002.025934,00001.999458,00003.056278,00002.809360,00002.945818,00002.724065,00003.211975,00002.648115,00002.679186,-00000.469398,-00000.063094,-00000.541868,00000.051868,-00000.020187,-00000.011510
0000000000949,00002.678133,00002.025140,00001.999502,00003.055812,00002.809325,00002.945572,00002.723962,00003.211860,00002.647535,00002.679079,-00000.468194,-00000.062758,-00000.541476,00000.052012,-00000.020563,-00000.010279
0000000000950,00002.677848,00002.023982,00001.999992,00003.055301,00002.809546,00002.945303,00002.723873,00003.211790,00002.646882,00002.679500,-00000.467078,-00000.062419,-00000.541106,00000.052500,-00000.020450,-00000.009073
0000000000951,00002.677516,00002.023306,00002.000392,00003.055267,00002.809516,00002.945094,00002.723786,00003.211692,00002.646388,00002.679772,-00000.466416,-00000.062133,-00000.541136,00000.052985,-00000.020407,-00000.008025
0000000000952,00002.677273,00002.022683,00002.000809,00003.055194,00002.809341,00002.944865,00002.723348,00003.211633,00002.645833,00002.679768,-00000.465829,-00000.061844,-00000.540821,00000.053400,-00000.019949,-00000.006998
0000000000953,00002.676628,00002.022470,00002.000787,00003.055166,00002.808953,00002.944687,00002.723273,00003.211186,00002.645775,00002.679274,-00000.464902,-00000.061601,-00000.540483,00000.053813,-00000.019187,-00000.006469
0000000000954,00002.676421,00002.022665,00002.000779,00003.055466,00002.809167,00002.944492,00002.723626,00003.211136,00002.645665,00002.679270,-00000.464040,-00000.061355,-00000.540215,00000.054167,-00000.018434,-00000.005957
0000000000955,00002.676234,00002.022847,00002.000760,00003.055805,00002.808836,00002.944340,00002.723562,00003.210755,00002.645616,00002.678850,-00000.463614,-00000.061148,-00000.540291,00000.054518,-00000.018148,-00000.005870
0000000000956,00002.676058,00002.022650,00002.000753,00003.055698,00002.808656,00002.944537,00002.723499,00003.211075,00002.645522,00002.679210,-00000.463242,-00000.060938,-00000.540063,00000.054819,-00000.017506,-00000.005434
0000000000957,00002.675899,00002.022442,00002.001100,00003.055261,00002.808374,00002.944408,00002.723083,00003.211114,00002.645480,00002.679214,-00000.462879,-00000.060762,-00000.539764,00000.055118,-00000.016900,-00000.005360
0000000000958,00002.675749,00002.022637,00002.001094,00003.055533,00002.808220,00002.944213,00002.723029,00003.210661,00002.645763,00002.678795,-00000.462926,-00000.060947,-00000.539933,00000.055012,-00000.016717,-00000.004989
0000000000959,00002.675614,00002.022823,00002.001390,00003.055160,00002.808344,00002.944103,00002.723037,00003.210694,00002.645728,00002.679162,-00000.462980,-00000.061160,-00000.540041,00000.054904,-00000.016927,-00000.004200
0000000000960,00002.675487,00002.022627,00002.001385,00003.055029,00002.808213,00002.944299,00002.722629,00003.210671,00002.645969,00002.679168,-00000.462657,-00000.060954,-00000.540185,00000.054813,-00000.016771,-00000.003159
0000000000961,00002.675371,00002.022422,00002.001273,00003.055075,00002.807592,00002.944569,00002.722636,00003.210700,00002.645938,00002.678754,-00000.462340,-00000.061135,-00000.540277,00000.055084,-00000.016587,-00000.002124
0000000000962,00002.675626,00002.021892,00002.001269,00003.054600,00002.807481,00002.944736,00002.722651,00003.210680,00002.645418,00002.678759,-00000.462427,-00000.061323,-00000.540399,00000.055006,-00000.016454,-00000.001238
0000000000963,00002.675528,00002.021718,00002.000811,00003.054639,00002.807315,00002.944965,00002.723020,00003.210704,00002.645392,00002.678770,-00000.462158,-00000.061114,-00000.540478,00000.054874,-00000.016297,-00000.000357
0000000000964,00002.675744,00002.021266,00002.000445,00003.054235,00002.807220,00002.944745,00002.722670,00003.210687,00002.644949,00002.679137,-00000.461870,-00000.060911,-00000.540219,00000.054808,-00000.016184,00000.000397
0000000000965,00002.675660,00002.021118,00002.000418,00003.053905,00002.807442,00002.944577,00002.722621,00003.210708,00002.644927,00002.679509,-00000.462003,-00000.061096,-00000.540286,00000.054696,-00000.016413,00000.001147
0000000000966,00002.675482,00002.021097,00002.000469,00003.053924,00002.807361,00002.944752,00002.722686,00003.211057,00002.645276,00002.679459,-00000.462120,-00000.061286,-00000.540429,00000.054277,-00000.017043,00000.001427
0000000000967,00002.675411,00002.020970,00002.000446,00003.053644,00002.807550,00002.944610,00002.722644,00003.211074,00002.645620,00002.679413,-00000.462234,-00000.061444,-00000.540486,00000.053818,-00000.017600,00000.001339
0000000000968,00002.675622,00002.020589,00002.000489,00003.053297,00002.807481,00002.944759,00002.722336,00003.211008,00002.645553,00002.679370,-00000.461971,-00000.061605,-00000.540607,00000.053462,-00000.018136,00000.000852
0000000000969,00002.675924,00002.020482,00002.000833,00003.053058,00002.807279,00002.945000,00002.722301,00003.211386,00002.645484,00002.679331,-00000.461705,-00000.061740,-00000.540655,00000.053072,-00000.018611,00000.000415
0000000000970,00002.676103,00002.020520,00002.000870,00003.052763,00002.807221,00002.945127,00002.722039,00003.211329,00002.645427,00002.678932,-00000.461481,-00000.061877,-00000.540759,00000.053131,-00000.019067,-00000.000363
0000000000971,00002.675998,00002.020429,00002.000799,00003.052922,00002.807049,00002.944970,00002.722009,00003.210925,00002.645368,00002.678898,-00000.460891,-00000.061629,-00000.540800,00000.053161,-00000.019109,-00000.000735
0000000000972,00002.675425,00002.020461,00002.000468,00003.052308,00002.806999,00002.944352,00002.722149,00003.210515,00002.645320,00002.678921,-00000.460338,-00000.061383,-00000.540525,00000.053212,-00000.019134,-00000.001035
0000000000973,00002.675335,00002.020746,00002.000408,00003.052081,00002.807215,00002.944218,00002.722486,00003.210534,00002.645269,00002.679256,-00000.459474,-00000.061172,-00000.540197,00000.053600,-00000.018807,-00000.001352
0000000000974,00002.675211,00002.021137,00002.000488,00003.051558,00002.807536,00002.944055,00002.722968,00003.210547,00002.644866,00002.679638,-00000.458640,-00000.060600,-00000.539963,00000.054006,-00000.018466,-00000.001969
0000000000975,00002.675134,00002.021017,00002.000437,00003.050640,00002.807357,00002.943941,00002.722892,00003.210563,00002.644460,00002.679560,-00000.457904,-00000.060057,-00000.539685,00000.054337,-00000.017824,-00000.002602
0000000000976,00002.675028,00002.021349,00002.000143,00003.050557,00002.807267,00002.943803,00002.722940,00003.210211,00002.644479,00002.679522,-00000.456831,-00000.059570,-00000.539485,00000.054682,-00000.017171,-00000.003128
0000000000977,00002.675326,00002.021247,00001.999737,00003.050138,00002.807115,00002.943706,00002.722512,00003.210225,00002.643770,00002.679456,-00000.455842,-00000.059108,-00000.539248,00000.055327,-00000.016262,-00000.003666
0000000000978,00002.675598,00002.021167,00001.999487,00003.049342,00002.807038,00002.943950,00002.722553,00003.210288,00002.643424,00002.679787,-00000.454929,-00000.058693,-00000.539078,00000.055984,-00000.015343,-00000.004114
0000000000979,00002.675489,00002.021443,00001.999141,00003.048622,00002.807272,00002.943868,00002.722552,00003.210300,00002.643184,00002.680093,-00000.454086,-00000.058300,-00000.538876,00000.056532,-00000.014207,-00000.004572
0000000000980,00002.675358,00002.021738,00001.998565,00003.048308,00002.806844,00002.943713,00002.722223,00003.209991,00002.642526,00002.679649,-00000.453309,-00000.057584,-00000.538369,00000.057454,-00000.012699,-00000.004590
0000000000981,00002.675264,00002.021610,00001.998270,00003.047695,00002.806680,00002.943643,00002.721860,00003.210001,00002.641959,00002.679910,-00000.452592,-00000.057249,-00000.537834,00000.058284,-00000.011369,-00000.004618
0000000000982,00002.675516,00002.021135,00001.998143,00003.047065,00002.806678,00002.943511,00002.721943,00003.210101,00002.641399,00002.679895,-00000.451930,-00000.056640,-00000.537402,00000.059069,-00000.010085,-00000.004633
0000000000983,00002.675437,00002.021026,00001.997529,00003.046543,00002.806175,00002.943451,00002.721633,00003.209747,00002.640916,00002.679391,-00000.451320,-00000.055992,-00000.536947,00000.059776,-00000.009315,-00000.004657
0000000000984,00002.675288,00002.020622,00001.997058,00003.046006,00002.805811,00002.943340,00002.721341,00003.209469,00002.640439,00002.679016,-00000.450757,-00000.055836,-00000.536942,00000.060444,-00000.008585,-00000.004670
0000000000985,00002.674857,00002.020529,00001.996536,00003.045562,00002.805746,00002.943289,00002.721440,00003.209167,00002.640391,00002.678587,-00000.450600,-00000.055648,-00000.536918,00000.060682,-00000.007930,-00000.004690
0000000000986,00002.674731,00002.020185,00001.996497,00003.044742,00002.805799,00002.943193,00002.721555,00003.208931,00002.639985,00002.678267,-00000.450483,-00000.055515,-00000.536913,00000.060888,-00000.007672,-00000.005064
0000000000987,00002.675090,00002.020106,00001.996053,00003.044364,00002.805381,00002.943513,00002.721639,00003.208674,00002.639581,00002.677902,-00000.450350,-00000.055354,-00000.536892,00000.061092,-00000.007114,-00000.005444
0000000000988,00002.675345,00002.019814,00001.996020,00003.044029,00002.805426,00002.943432,00002.721374,00003.208473,00002.638873,00002.677630,-00000.450250,-00000.055241,-00000.536889,00000.061267,-00000.006894,-00000.005762
0000000000989,00002.675651,00002.019384,00001.995642,00003.043707,00002.805433,00002.943703,00002.721446,00003.208617,00002.638529,00002.677682,-00000.450136,-00000.055105,-00000.536871,00000.061440,-00000.006781,-00000.006085
0000000000990,00002.675505,00002.019134,00001.994888,00003.043422,00002.805108,00002.943634,00002.721582,00003.208083,00002.638289,00002.676725,-00000.450415,-00000.055371,-00000.536868,00000.061226,-00000.006594,-00000.006719
0000000000991,00002.675403,00002.018768,00001.994566,00003.042785,00002.805114,00002.943503,00002.721644,00003.207843,00002.637996,00002.676406,-00000.450681,-00000.055618,-00000.536853,00000.061374,-00000.006499,-00000.006994
0000000000992,00002.675641,00002.018556,00001.994287,00003.042905,00002.804838,00002.943807,00002.721760,00003.208114,00002.637792,00002.676317,-00000.450917,-00000.055845,-00000.536850,00000.061192,-00000.006339,-00000.007171
0000000000993,00002.675191,00002.018607,00001.994013,00003.042726,00002.804843,00002.943695,00002.721812,00003.207909,00002.637905,00002.676046,-00000.451507,-00000.056054,-00000.537200,00000.060954,-00000.006621,-00000.007406
0000000000994,00002.675032,00002.018427,00001.993776,00003.042102,00002.805333,00002.943591,00002.721911,00003.208140,00002.637731,00002.676332,-00000.452434,-00000.056610,-00000.537561,00000.060800,-00000.006848,-00000.007556
0000000000995,00002.675011,00002.018470,00001.993542,00003.042313,00002.805337,00002.943859,00002.721593,00003.208329,00002.637828,00002.676102,-00000.453298,-00000.057152,-00000.537858,00000.060235,-00000.007450,-00000.007756
0000000000996,00002.674876,00002.018679,00001.992978,00003.042145,00002.805029,00002.943770,00002.721677,00003.207800,00002.638043,00002.675983,-00000.454088,-00000.057625,-00000.538165,00000.059377,-00000.008006,-00000.007884
0000000000997,00002.674858,00002.017991,00001.992416,00003.041598,00002.805033,00002.943635,00002.721406,00003.207960,00002.637762,00002.675786,-00000.454824,-00000.058449,-00000.538419,00000.058534,-00000.008519,-00000.008416
0000000000998,00002.674743,00002.017443,00001.991935,00003.041092,00002.805133,00002.943560,00002.721115,00003.207872,00002.637582,00002.675685,-00000.455495,-00000.058852,-00000.538680,00000.058167,-00000.008630,-00000.008525
0000000000999,00002.674728,00002.017220,00001.991820,00003.040627,00002.805499,00002.943808,00002.721247,00003.207647,00002.637706,00002.675881,-00000.456122,-00000.059553,-00000.538896,00000.057811,-00000.009066,-00000.008616
0000000001000,00002.674630,00002.017116,00001.991411,00003.040196,00002.805585,00002.943744,00002.721362,00003.207572,00002.638278,00002.676158,-00000.457057,-00000.059896,-00000.539119,00000.057499,-00000.009160,-00000.008346
0000000001001,00002.674980,00002.016926,00001.991313,00003.040526,00002.805533,00002.943955,00002.721112,00003.207742,00002.638384,00002.676324,-00000.457590,-00000.060130,-00000.539665,00000.057196,-00000.009169,-00000.007698
0000000001002,00002.674533,00002.016838,00001.990964,00003.040522,00002.805606,00002.943537,00002.721210,00003.207316,00002.638508,00002.676197,-00000.458023,-00000.060422,-00000.540217,00000.056930,-00000.009612,-00000.007105
0000000001003,00002.674106,00002.016676,00001.990518,00003.040077,00002.805562,00002.943354,00002.721360,00003.207098,00002.638598,00002.676338,-00000.458477,-00000.060621,-00000.540682,00000.056672,-00000.009983,-00000.006553
0000000001004,00002.674088,00002.016601,00001.990584,00003.039711,00002.805624,00002.943362,00002.721443,00003.207098,00002.638341,00002.676593,-00000.458846,-00000.060870,-00000.541153,00000.056446,-00000.010360,-00000.006048
0000000001005,00002.674087,00002.016463,00001.990567,00003.039332,00002.805950,00002.943206,00002.721570,00003.206913,00002.638418,00002.676714,-00000.459232,-00000.061039,-00000.541186,00000.056227,-00000.010675,-00000.005578
0000000001006,00002.674073,00002.016762,00001.990261,00003.039746,00002.806366,00002.943575,00002.721641,00003.206912,00002.638925,00002.676568,-00000.459546,-00000.061251,-00000.541586,00000.056034,-00000.010996,-00000.005149
0000000001007,00002.674072,00002.017008,00001.989883,00003.039786,00002.806280,00002.943442,00002.721750,00003.206392,00002.638990,00002.676307,-00000.459875,-00000.061395,-00000.541977,00000.055484,-00000.011264,-00000.004749
0000000001008,00002.674422,00002.016900,00001.989985,00003.039413,00002.806634,00002.943394,00002.721810,00003.206755,00002.639059,00002.676909,-00000.460142,-00000.061576,-00000.542318,00000.054958,-00000.011538,-00000.004383
0000000001009,00002.674784,00002.016746,00001.990027,00003.039810,00002.806561,00002.944006,00002.721540,00003.207037,00002.639114,00002.676687,-00000.460785,-00000.061699,-00000.542651,00000.054490,-00000.011766,-00000.004043
0000000001010,00002.675082,00002.016654,00001.990113,00003.040218,00002.806862,00002.944328,00002.721228,00003.207346,00002.639173,00002.676836,-00000.461375,-00000.061852,-00000.542941,00000.054041,-00000.011999,-00000.003732
0000000001011,00002.675027,00002.016523,00001.990149,00003.040193,00002.806800,00002.944124,00002.720998,00003.207586,00002.639220,00002.676648,-00000.461923,-00000.061957,-00000.543224,00000.053643,-00000.012193,-00000.003442
0000000001012,00002.675281,00002.016807,00001.990223,00003.040177,00002.806694,00002.944035,00002.721096,00003.207486,00002.639270,00002.676412,-00000.462425,-00000.062087,-00000.543471,00000.053261,-00000.012391,-00000.002814
0000000001013,00002.675235,00002.016696,00001.989890,00003.040519,00002.806641,00002.944224,00002.721263,00003.207328,00002.639673,00002.676251,-00000.462891,-00000.062176,-00000.543712,00000.052922,-00000.012557,-00000.002204
0000000001014,00002.675088,00002.016938,00001.989590,00003.040506,00002.806913,00002.944148,00002.721709,00003.207243,00002.640078,00002.676413,-00000.463319,-00000.062287,-00000.543923,00000.052960,-00000.012725,-00000.001670
0000000001015,00002.675048,00002.017205,00001.989307,00003.040434,00002.806868,00002.943946,00002.721851,00003.206745,00002.640421,00002.676639,-00000.464078,-00000.062726,-00000.544128,00000.052671,-00000.012866,-00000.001151
0000000001016,00002.674924,00002.017049,00001.989051,00003.040785,00002.806737,00002.943881,00002.721868,00003.206310,00002.640766,00002.676414,-00000.464805,-00000.062821,-00000.544307,00000.052703,-00000.013010,-00000.000696
0000000001017,00002.674890,00002.017277,00001.988810,00003.041087,00002.806699,00002.943709,00002.721988,00003.206250,00002.641421,00002.676607,-00000.465452,-00000.062831,-00000.544482,00000.052820,-00000.013130,-00000.000617
0000000001018,00002.674783,00002.017506,00001.988593,00003.041386,00002.806587,00002.944017,00002.722003,00003.206242,00002.642077,00002.676778,-00000.466070,-00000.063275,-00000.544634,00000.052848,-00000.013252,-00000.000230
0000000001019,00002.675118,00002.017700,00001.988750,00003.041643,00002.806917,00002.943871,00002.722106,00003.206190,00002.642635,00002.677305,-00000.466621,-00000.063647,-00000.544783,00000.052948,-00000.013354,00000.000200
0000000001020,00002.675390,00002.017896,00001.988565,00003.042261,00002.806822,00002.944496,00002.722118,00003.206546,00002.643193,00002.677451,-00000.467148,-00000.064024,-00000.544913,00000.052971,-00000.013458,00000.000167
0000000001021,00002.675674,00002.018061,00001.988337,00003.042116,00002.807103,00002.944371,00002.722206,00003.206503,00002.643668,00002.677899,-00000.467616,-00000.064340,-00000.544677,00000.053056,-00000.013545,00000.000171
0000000001022,00002.675543,00002.018227,00001.988179,00003.041916,00002.807385,00002.944540,00002.722579,00003.206443,00002.644144,00002.678386,-00000.468065,-00000.064299,-00000.544787,00000.053075,-00000.013634,00000.000142
0000000001023,00002.675785,00002.018005,00001.987985,00003.042156,00002.807262,00002.944797,00002.722653,00003.206768,00002.644548,00002.678042,-00000.468463,-00000.064568,-00000.544949,00000.053511,-00000.013345,00000.000145
0000000001024,00002.675674,00002.017784,00001.988213,00003.041624,00002.807502,00002.944941,00002.722608,00003.207080,00002.644590,00002.678457,-00000.468845,-00000.064533,-00000.545043,00000.054253,-00000.012332,00000.000847
0000000001025,00002.675880,00002.017595,00001.988410,00003.041465,00002.807397,00002.945160,00002.722672,00003.207357,00002.644571,00002.678527,-00000.469185,-00000.064400,-00000.545181,00000.054986,-00000.010998,00000.001575
0000000001026,00002.675785,00002.017769,00001.988242,00003.041374,00002.807238,00002.945282,00002.722633,00003.207260,00002.644970,00002.678517,-00000.469147,-00000.064370,-00000.545261,00000.055618,-00000.009410,00000.002172
0000000001027,00002.675598,00002.017971,00001.988047,00003.041602,00002.807149,00002.945468,00002.722687,00003.207133,00002.645317,00002.678577,-00000.469436,-00000.064619,-00000.545378,00000.056605,-00000.008274,00000.002429
0000000001028,00002.675880,00002.017757,00001.987904,00003.041887,00002.807014,00002.945573,00002.722655,00003.207413,00002.645293,00002.678568,-00000.469767,-00000.064956,-00000.545083,00000.057506,-00000.007285,00000.002575
0000000001029,00002.675720,00002.017928,00001.987738,00003.042081,00002.806938,00002.945368,00002.722701,00003.207305,00002.645588,00002.678256,-00000.470013,-00000.065168,-00000.544820,00000.058346,-00000.006318,00000.002793
0000000001030,00002.675597,00002.017746,00001.987253,00003.041962,00002.806460,00002.945457,00002.722310,00003.207544,00002.645568,00002.677886,-00000.470294,-00000.065455,-00000.544569,00000.059113,-00000.005839,00000.002917
0000000001031,00002.675099,00002.017529,00001.986749,00003.042127,00002.806395,00002.945646,00002.722349,00003.207452,00002.645820,00002.677983,-00000.470504,-00000.065636,-00000.544345,00000.059828,-00000.005379,00000.003104
0000000001032,00002.675357,00002.017737,00001.986700,00003.042388,00002.806351,00002.946084,00002.722380,00003.207292,00002.646166,00002.678031,-00000.470743,-00000.065880,-00000.544132,00000.060481,-00000.004971,00000.003209
0000000001033,00002.675658,00002.017553,00001.986633,00003.042165,00002.806296,00002.946245,00002.722413,00003.207576,00002.646017,00002.678114,-00000.470922,-00000.065671,-00000.543941,00000.061090,-00000.004579,00000.003730
0000000001034,00002.675153,00002.017366,00001.986591,00003.041662,00002.806259,00002.945893,00002.722439,00003.207440,00002.646311,00002.678155,-00000.471126,-00000.065517,-00000.543760,00000.061646,-00000.004232,00000.004546
0000000001035,00002.675046,00002.016847,00001.986534,00003.041110,00002.806575,00002.946030,00002.722467,00003.207683,00002.646184,00002.678225,-00000.471277,-00000.065339,-00000.543597,00000.062164,-00000.003898,00000.005353
0000000001036,00002.674616,00002.016688,00001.986498,00003.040681,00002.806906,00002.945730,00002.722852,00003.207567,00002.646072,00002.678260,-00000.471451,-00000.065570,-00000.543443,00000.062637,-00000.003602,00000.006047
0000000001037,00002.674525,00002.016609,00001.986813,00003.040211,00002.806812,00002.945846,00002.722876,00003.207773,00002.645964,00002.678320,-00000.471943,-00000.065418,-00000.543304,00000.063079,-00000.003318,00000.006371
0000000001038,00002.674522,00002.016474,00001.986782,00003.039846,00002.807093,00002.945954,00002.723203,00003.208037,00002.646232,00002.678349,-00000.472454,-00000.065252,-00000.543173,00000.063481,-00000.003429,00000.006236
0000000001039,00002.674807,00002.016043,00001.987050,00003.039446,00002.807376,00002.946053,00002.723224,00003.208213,00002.646140,00002.678400,-00000.472873,-00000.065486,-00000.543055,00000.063857,-00000.003550,00000.006149
0000000001040,00002.675167,00002.015928,00001.987387,00003.039136,00002.806891,00002.946507,00002.723140,00003.208438,00002.646367,00002.678425,-00000.473307,-00000.065344,-00000.542943,00000.064200,-00000.003645,00000.006034
0000000001041,00002.675410,00002.015924,00001.987978,00003.039158,00002.807131,00002.946954,00002.723158,00003.208950,00002.646289,00002.678832,-00000.473664,-00000.065544,-00000.542480,00000.064520,-00000.003748,00000.005960
0000000001042,00002.675716,00002.015827,00001.988264,00003.038893,00002.807081,00002.947341,00002.723086,00003.209141,00002.646120,00002.678853,-00000.474034,-00000.065423,-00000.542385,00000.064812,-00000.003829,00000.005863
0000000001043,00002.675560,00002.015824,00001.988042,00003.038550,00002.807286,00002.946996,00002.723464,00003.208852,00002.646416,00002.678836,-00000.473975,-00000.065230,-00000.542353,00000.065084,-00000.003916,00000.005799
0000000001044,00002.675821,00002.015740,00001.988286,00003.038324,00002.807242,00002.946962,00002.723040,00003.209378,00002.646272,00002.678854,-00000.473927,-00000.065127,-00000.541909,00000.065332,-00000.003985,00000.005716
0000000001045,00002.676051,00002.015738,00001.988459,00003.038032,00002.807054,00002.947394,00002.722999,00003.209494,00002.646162,00002.678840,-00000.473876,-00000.064963,-00000.541520,00000.065564,-00000.004060,00000.006025
0000000001046,00002.675910,00002.015667,00001.988667,00003.037477,00002.807380,00002.947366,00002.723001,00003.209579,00002.646039,00002.678855,-00000.473836,-00000.065238,-00000.541505,00000.065776,-00000.004118,00000.006318
0000000001047,00002.676106,00002.015302,00001.988814,00003.037228,00002.807220,00002.947371,00002.722966,00003.209678,00002.645945,00002.678843,-00000.473793,-00000.065098,-00000.541536,00000.066336,-00000.004182,00000.006218
0000000001048,00002.675986,00002.015241,00001.988628,00003.036756,00002.807135,00002.946984,00002.722968,00003.209387,00002.645841,00002.678493,-00000.473758,-00000.065333,-00000.541523,00000.066879,-00000.004231,00000.006104
0000000001049,00002.675790,00002.015293,00001.988754,00003.036544,00002.807361,00002.946988,00002.723301,00003.209471,00002.646123,00002.678483,-00000.474084,-00000.065214,-00000.541187,00000.067355,-00000.004285,00000.005656
0000000001050,00002.676051,00002.015242,00001.988958,00003.036505,00002.807288,00002.947384,00002.723302,00003.209587,00002.646035,00002.678548,-00000.474055,-00000.065050,-00000.541176,00000.067817,-00000.004328,00000.005196
0000000001051,00002.676247,00002.014923,00001.989065,00003.036324,00002.807118,00002.947387,00002.722860,00003.209658,00002.645912,00002.678539,-00000.474333,-00000.065312,-00000.540889,00000.068586,-00000.004374,00000.005178
0000000001052,00002.676106,00002.014880,00001.988876,00003.036291,00002.807057,00002.947362,00002.722861,00003.209394,00002.646200,00002.678232,-00000.474308,-00000.065536,-00000.540880,00000.069342,-00000.004410,00000.005149
0000000001053,00002.676273,00002.014608,00001.988967,00003.036137,00002.806912,00002.947365,00002.722485,00003.209455,00002.645733,00002.677861,-00000.474181,-00000.065758,-00000.540999,00000.069997,-00000.004449,00000.005133
0000000001054,00002.676153,00002.014571,00001.989170,00003.035746,00002.807222,00002.947343,00002.722486,00003.209593,00002.645615,00002.677963,-00000.474160,-00000.065949,-00000.540991,00000.070641,-00000.004480,00000.005109
0000000001055,00002.675570,00002.014703,00001.988884,00003.035978,00002.807099,00002.946983,00002.722891,00003.209282,00002.645580,00002.678010,-00000.474052,-00000.066138,-00000.541093,00000.071198,-00000.004513,00000.005096
0000000001056,00002.675467,00002.014309,00001.989056,00003.036008,00002.807000,00002.946964,00002.722529,00003.209399,00002.645116,00002.678096,-00000.474034,-00000.066300,-00000.541086,00000.071746,-00000.004539,00000.005438
0000000001057,00002.675333,00002.014421,00001.988813,00003.036205,00002.806532,00002.947020,00002.722511,00003.209134,00002.645087,00002.677774,-00000.473943,-00000.066462,-00000.541172,00000.072220,-00000.004567,00000.005426
0000000001058,00002.675609,00002.014448,00001.988960,00003.036594,00002.806811,00002.947367,00002.722566,00003.209234,00002.645055,00002.677847,-00000.473927,-00000.066600,-00000.541166,00000.072324,-00000.004590,00000.005355
0000000001059,00002.675495,00002.014906,00001.989116,00003.036762,00002.807138,00002.947415,00002.722914,00003.209372,00002.645030,00002.677936,-00000.473849,-00000.066737,-00000.541240,00000.072365,-00000.004614,00000.005345
0000000001060,00002.675367,00002.014929,00001.989603,00003.037092,00002.807013,00002.947710,00002.722960,00003.209457,00002.645003,00002.678361,-00000.473836,-00000.066855,-00000.540872,00000.072453,-00000.004633,00000.005284
0000000001061,00002.675633,00002.015320,00001.990099,00003.037235,00002.806929,00002.948114,00002.722531,00003.209936,00002.644982,00002.678436,-00000.474132,-00000.066971,-00000.540935,00000.072488,-00000.004653,00000.005276
0000000001062,00002.675524,00002.015339,00001.990151,00003.037517,00002.806822,00002.948365,00002.722207,00003.210371,00002.644959,00002.678435,-00000.475210,-00000.067071,-00000.540985,00000.072200,-00000.004669,00000.005224
0000000001063,00002.675025,00002.015671,00001.990210,00003.038001,00002.806750,00002.948709,00002.722204,00003.210054,00002.644941,00002.678137,-00000.479815,-00000.067171,-00000.540675,00000.072230,-00000.005050,00000.005217
0000000001064,00002.674569,00002.016051,00001.990255,00003.038604,00002.806659,00002.948923,00002.722292,00003.209699,00002.644921,00002.677773,-00000.488351,-00000.066893,-00000.539992,00000.072711,-00000.005789,00000.005898
0000000001065,00002.674507,00002.016334,00001.990668,00003.039016,00002.807687,00002.949215,00002.722652,00003.209792,00002.644905,00002.677882,-00000.498440,-00000.066252,-00000.539003,00000.073099,-00000.006838,00000.006981
0000000001066,00002.674119,00002.016294,00001.990706,00003.039892,00002.808335,00002.949398,00002.722727,00003.209490,00002.644889,00002.677572,-00000.510059,-00000.066016,-00000.538421,00000.073145,-00000.007831,00000.008286
0000000001067,00002.674066,00002.015809,00001.990695,00003.040606,00002.808847,00002.950009,00002.722308,00003.209569,00002.644513,00002.677302,-00000.523727,-00000.065833,-00000.537942,00000.073113,-00000.009087,00000.010659
0000000001068,00002.673736,00002.015412,00001.990001,00003.040625,00002.809399,00002.950164,00002.722009,00003.208949,00002.644136,00002.676313,-00000.538335,-00000.065269,-00000.537447,00000.072789,-00000.010657,00000.014310
0000000001069,00002.673691,00002.014637,00001.988903,00003.040870,00002.810197,00002.951048,00002.721652,00003.209016,00002.643453,00002.675357,-00000.553961,-00000.064388,-00000.536676,00000.072762,-00000.012452,00000.019232
0000000001070,00002.673410,00002.013211,00001.987225,00003.040524,00002.811030,00002.951543,00002.721398,00003.208851,00002.642769,00002.674152,-00000.571113,-00000.063545,-00000.535892,00000.072849,-00000.014514,00000.024517
0000000001071,00002.672646,00002.011825,00001.985565,00003.040007,00002.811710,00002.952295,00002.721094,00003.208545,00002.642551,00002.673338,-00000.589858,-00000.063158,-00000.535236,00000.072826,-00000.017130,00000.029070
0000000001072,00002.672044,00002.010611,00001.984136,00003.039350,00002.813144,00002.953079,00002.721240,00003.208767,00002.642694,00002.672313,-00000.610264,-00000.062803,-00000.534568,00000.072901,-00000.020700,00000.033569
0000000001073,00002.671393,00002.009068,00001.983811,00003.038547,00002.814811,00002.955171,00002.720981,00003.209233,00002.643234,00002.670894,-00000.632026,-00000.062836,-00000.533647,00000.073243,-00000.025104,00000.037445
0000000001074,00002.670881,00002.008398,00001.983683,00003.036174,00002.817120,00002.957652,00002.721106,00003.210510,00002.646621,00002.669659,-00000.654477,-00000.062897,-00000.532353,00000.073670,-00000.029957,00000.041275
0000000001075,00002.670327,00002.008536,00001.984494,00003.029685,00002.819991,00002.959795,00002.722337,00003.212358,00002.650346,00002.668088,-00000.680621,-00000.062925,-00000.531205,00000.074324,-00000.034069,00000.045300
0000000001076,00002.669528,00002.010142,00001.984748,00003.019683,00002.823408,00002.961908,00002.723894,00003.214534,00002.653955,00002.665948,-00000.709892,-00000.062977,-00000.530104,00000.075050,-00000.037475,00000.049286
0000000001077,00002.668694,00002.012436,00001.983625,00003.004727,00002.826940,00002.964095,00002.724942,00003.217558,00002.657125,00002.663160,-00000.741218,-00000.063001,-00000.529127,00000.075607,-00000.040975,00000.053076
0000000001078,00002.668013,00002.017068,00001.981664,00002.989682,00002.830575,00002.965893,00002.726267,00003.220498,00002.659835,00002.659887,-00000.775569,-00000.063408,-00000.527827,00000.076225,-00000.044600,00000.055744
0000000001079,00002.667303,00002.021923,00001.978532,00002.975862,00002.833581,00002.967756,00002.727522,00003.222710,00002.662534,00002.656062,-00000.812033,-00000.064153,-00000.526270,00000.076337,-00000.048668,00000.057156
0000000001080,00002.666724,00002.026230,00001.976137,00002.963054,00002.836675,00002.970012,00002.728651,00003.225576,00002.664841,00002.652550,-00000.850708,-00000.064863,-00000.524800,00000.076500,-00000.052480,00000.057976
0000000001081,00002.665394,00002.030726,00001.973107,00002.950200,00002.839235,00002.971235,00002.729356,00003.226733,00002.666776,00002.648931,-00000.890457,-00000.065860,-00000.523112,00000.076957,-00000.055943,00000.058452
0000000001082,00002.664538,00002.035117,00001.970706,00002.938571,00002.841506,00002.973155,00002.729954,00003.228085,00002.668740,00002.645942,-00000.929912,-00000.067190,-00000.521497,00000.077459,-00000.058825,00000.058062
0000000001083,00002.663769,00002.040033,00001.968127,00002.927266,00002.843685,00002.974559,00002.730555,00003.229433,00002.670024,00002.642861,-00000.970643,-00000.068402,-00000.519697,00000.078212,-00000.060685,00000.057742
0000000001084,00002.662677,00002.045223,00001.965357,00002.916641,00002.845982,00002.975831,00002.731426,00003.230583,00002.670245,00002.639953,-00001.011486,-00000.069534,-00000.517598,00000.079001,-00000.062412,00000.058135
0000000001085,00002.661297,00002.050133,00001.962798,00002.907017,00002.848199,00002.977026,00002.732300,00003.231368,00002.670976,00002.637331,-00001.052328,-00000.070928,-00000.515340,00000.080005,-00000.063996,00000.058951
0000000001086,00002.660005,00002.054551,00001.960077,00002.897972,00002.850154,00002.978835,00002.732680,00003.232347,00002.672252,00002.634855,-00001.093266,-00000.072617,-00000.512827,00000.081403,-00000.065467,00000.058197
0000000001087,00002.658467,00002.059820,00001.957174,00002.890141,00002.852042,00002.980215,00002.733061,00003.233015,00002.673599,00002.631897,-00001.134565,-00000.074167,-00000.510542,00000.082620,-00000.066815,00000.057078
0000000001088,00002.656641,00002.065032,00001.954132,00002.882441,00002.853706,00002.981392,00002.733384,00003.233486,00002.675049,00002.629064,-00001.177034,-00000.075605,-00000.508402,00000.084173,-00000.067341,00000.055711
0000000001089,00002.655332,00002.069880,00001.950934,00002.875775,00002.855314,00002.982930,00002.734071,00003.234055,00002.676196,00002.626908,-00001.220536,-00000.077288,-00000.506457,00000.085934,-00000.067400,00000.055484
0000000001090,00002.653778,00002.075043,00001.947982,00002.869220,00002.857456,00002.983932,00002.734709,00003.234819,00002.677067,00002.624859,-00001.266122,-00000.079600,-00000.504636,00000.088345,-00000.067123,00000.056859
0000000001091,00002.652300,00002.079896,00001.945260,00002.863183,00002.859187,00002.984878,00002.735294,00003.235666,00002.678406,00002.622661,-00001.313676,-00000.082483,-00000.502980,00000.090570,-00000.067536,00000.058117
0000000001092,00002.650978,00002.085379,00001.942747,00002.857602,00002.861011,00002.986094,00002.735837,00003.236679,00002.679510,00002.620917,-00001.364093,-00000.085540,-00000.501067,00000.092985,-00000.068026,00000.058562
0000000001093,00002.650082,00002.091687,00001.940430,00002.852463,00002.863210,00002.987262,00002.736335,00003.237762,00002.680651,00002.619046,-00001.415823,-00000.088721,-00000.499294,00000.095242,-00000.068377,00000.058545
0000000001094,00002.649319,00002.099257,00001.938290,00002.847349,00002.865125,00002.987934,00002.736797,00003.238988,00002.681228,00002.617561,-00001.469264,-00000.092411,-00000.497666,00000.096935,-00000.068794,00000.057836
0000000001095,00002.648557,00002.108255,00001.937043,00002.842611,00002.866998,00002.988928,00002.737584,00003.240273,00002.681836,00002.616331,-00001.523097,-00000.096207,-00000.496157,00000.098494,-00000.069093,00000.057458
0000000001096,00002.647907,00002.117239,00001.935947,00002.838621,00002.868628,00002.989864,00002.737978,00003.241316,00002.682327,00002.614704,-00001.577298,-00000.100437,-00000.494770,00000.099935,-00000.069085,00000.057217
0000000001097,00002.647259,00002.125988,00001.934523,00002.834587,00002.870948,00002.990710,00002.739010,00003.242773,00002.683207,00002.613657,-00001.630744,-00000.105120,-00000.493123,00000.101987,-00000.068977,00000.056170
0000000001098,00002.646706,00002.134724,00001.933227,00002.831190,00002.872336,00002.991869,00002.739708,00003.244024,00002.683988,00002.611910,-00001.684142,-00000.109809,-00000.491217,00000.104302,-00000.068608,00000.055602
0000000001099,00002.645791,00002.145074,00001.932015,00002.827756,00002.874310,00002.992590,00002.740224,00003.244901,00002.684738,00002.610655,-00001.738711,-00000.115247,-00000.489089,00000.106412,-00000.067790,00000.055436
0000000001100,00002.644957,00002.155414,00001.932363,00002.824502,00002.876217,00002.993576,00002.741181,00003.245603,00002.685403,00002.609530,-00001.797229,-00000.120690,-00000.486015,00000.108383,-00000.066750,00000.055678
0000000001101,00002.644178,00002.164950,00001.933144,00002.821216,00002.877535,00002.994553,00002.741258,00003.246713,00002.686041,00002.608100,-00001.857832,-00000.126407,-00000.482390,00000.110543,-00000.065329,00000.055900
0000000001102,00002.643468,00002.174115,00001.933804,00002.817720,00002.879159,00002.995392,00002.741710,00003.247673,00002.686244,00002.606054,-00001.919983,-00000.132493,-00000.479047,00000.112220,-00000.064806,00000.055743
0000000001103,00002.642805,00002.183685,00001.934469,00002.814922,00002.880644,00002.996586,00002.742138,00003.248618,00002.686424,00002.603748,-00001.983184,-00000.139174,-00000.475598,00000.112970,-00000.065410,00000.054843
0000000001104,00002.641475,00002.192575,00001.934667,00002.811583,00002.882026,00002.996938,00002.742885,00003.249073,00002.686597,00002.601280,-00002.045889,-00000.146531,-00000.471665,00000.114036,-00000.066416,00000.054347
0000000001105,00002.639460,00002.200359,00001.935234,00002.808476,00002.883653,00002.997592,00002.743612,00003.249515,00002.687114,00002.598591,-00002.109487,-00000.154758,-00000.466189,00000.115037,-00000.067655,00000.054307
0000000001106,00002.637602,00002.207565,00001.936854,00002.805633,00002.884830,00002.998617,00002.743886,00003.250264,00002.687261,00002.596491,-00002.172300,-00000.164286,-00000.459938,00000.116669,-00000.069237,00000.054610
0000000001107,00002.635160,00002.214554,00001.938062,00002.802626,00002.885852,00002.999537,00002.744142,00003.250640,00002.687338,00002.594565,-00002.232609,-00000.173829,-00000.453462,00000.118247,-00000.070656,00000.054938
0000000001108,00002.632491,00002.221776,00001.939804,00002.799843,00002.887579,00003.000047,00002.745100,00003.251279,00002.687826,00002.592776,-00002.291887,-00000.182666,-00000.446327,00000.119637,-00000.071640,00000.056648
0000000001109,00002.629324,00002.228089,00001.941920,00002.797645,00002.888812,00003.000829,00002.746044,00003.251962,00002.688254,00002.590774,-00002.347944,-00000.190428,-00000.439363,00000.120980,-00000.072121,00000.060192
0000000001110,00002.626688,00002.233149,00001.944129,00002.795639,00002.889920,00003.001626,00002.746497,00003.252868,00002.688307,00002.589252,-00002.399495,-00000.197588,-00000.432563,00000.122163,-00000.072233,00000.064913
0000000001111,00002.624355,00002.238523,00001.946294,00002.793768,00002.890969,00003.002292,00002.746938,00003.253449,00002.688309,00002.587547,-00002.446128,-00000.204558,-00000.425909,00000.123670,-00000.071918,00000.069381
0000000001112,00002.621749,00002.243919,00001.948536,00002.792060,00002.891912,00003.002971,00002.746961,00003.253858,00002.688354,00002.585888,-00002.487837,-00000.210653,-00000.419395,00000.126128,-00000.071650,00000.074125
0000000001113,00002.619400,00002.249582,00001.950742,00002.790468,00002.892806,00003.003538,00002.747336,00003.254353,00002.688718,00002.584437,-00002.525359,-00000.216224,-00000.413005,00000.128499,-00000.071019,00000.079744
0000000001114,00002.616818,00002.254902,00001.952651,00002.789014,00002.893971,00003.003753,00002.748081,00003.254338,00002.689119,00002.583387,-00002.558327,-00000.221050,-00000.407459,00000.130592,-00000.070066,00000.085959
0000000001115,00002.615544,00002.259360,00001.954892,00002.787658,00002.894732,00003.004236,00002.748400,00003.254759,00002.689066,00002.582152,-00002.587004,-00000.225430,-00000.402745,00000.132247,-00000.069166,00000.092556
0000000001116,00002.613346,00002.262800,00001.956517,00002.786058,00002.895724,00003.004419,00002.749035,00003.254746,00002.689407,00002.580896,-00002.611804,-00000.229539,-00000.398024,00000.134391,-00000.068717,00000.097484
0000000001117,00002.611173,00002.265507,00001.957699,00002.784178,00002.896735,00003.004467,00002.749306,00003.255105,00002.689363,00002.580207,-00002.635128,-00000.232904,-00000.393285,00000.136526,-00000.067588,00000.101649
0000000001118,00002.608939,00002.268073,00001.958720,00002.782452,00002.897579,00003.004623,00002.749484,00003.255094,00002.689290,00002.579138,-00002.657329,-00000.235676,-00000.388177,00000.137989,-00000.066480,00000.105844
0000000001119,00002.606727,00002.270014,00001.959726,00002.780489,00002.898077,00003.005026,00002.749352,00003.255399,00002.688889,00002.578551,-00002.677185,-00000.238179,-00000.383418,00000.139443,-00000.065882,00000.110478
0000000001120,00002.604462,00002.271473,00001.960595,00002.778658,00002.898433,00003.005159,00002.749503,00003.255390,00002.688828,00002.578004,-00002.694633,-00000.240901,-00000.379070,00000.140689,-00000.065664,00000.114412
0000000001121,00002.601853,00002.273126,00001.961088,00002.776261,00002.898856,00003.004777,00002.749754,00003.255287,00002.688849,00002.577142,-00002.710086,-00000.243031,-00000.374655,00000.142290,-00000.065518,00000.116543
0000000001122,00002.599562,00002.274730,00001.961103,00002.773976,00002.898797,00003.004890,00002.749520,00003.254917,00002.688434,00002.576313,-00002.724577,-00000.244624,-00000.370228,00000.144075,-00000.064244,00000.118804
0000000001123,00002.596978,00002.276137,00001.961160,00002.771573,00002.899157,00003.004928,00002.749733,00003.254466,00002.686276,00002.575579,-00002.739908,-00000.245711,-00000.366107,00000.145801,-00000.062668,00000.121343
0000000001124,00002.594666,00002.276778,00001.961172,00002.769628,00002.899469,00003.005386,00002.749534,00003.254876,00002.683746,00002.574510,-00002.755509,-00000.246704,-00000.362338,00000.147321,-00000.060496,00000.123994
0000000001125,00002.592466,00002.276524,00001.960858,00002.767945,00002.899413,00003.005419,00002.749353,00003.254856,00002.681545,00002.573160,-00002.771100,-00000.247993,-00000.358467,00000.149516,-00000.058791,00000.126156
0000000001126,00002.590497,00002.276707,00001.960869,00002.766289,00002.899316,00003.005446,00002.749546,00003.254842,00002.679754,00002.571888,-00002.786558,-00000.249564,-00000.354533,00000.152261,-00000.056942,00000.127686
0000000001127,00002.588262,00002.276854,00001.961327,00002.764131,00002.899631,00003.005111,00002.749392,00003.254462,00002.678969,00002.570375,-00002.803096,-00000.251386,-00000.350875,00000.155581,-00000.055128,00000.128438
0000000001128,00002.586586,00002.277735,00001.961699,00002.762721,00002.899549,00003.005498,00002.749193,00003.254450,00002.679259,00002.568930,-00002.819521,-00000.252724,-00000.347163,00000.158644,-00000.052828,00000.129378
0000000001129,00002.585045,00002.278585,00001.962814,00002.761247,00002.899817,00003.005575,00002.749062,00003.254489,00002.679679,00002.567642,-00002.835414,-00000.253913,-00000.343323,00000.161469,-00000.050196,00000.130744
0000000001130,00002.583256,00002.278972,00001.964219,00002.759684,00002.900110,00003.005541,00002.748893,00003.254842,00002.679925,00002.566048,-00002.851573,-00000.255414,-00000.339438,00000.164439,-00000.047875,00000.132270
0000000001131,00002.581219,00002.280060,00001.966620,00002.758791,00002.900338,00003.005244,00002.749144,00003.254512,00002.680646,00002.564590,-00002.867279,-00000.257514,-00000.335806,00000.167934,-00000.045634,00000.133796
0000000001132,00002.579333,00002.280752,00001.969267,00002.757824,00002.900950,00003.005215,00002.749363,00003.254450,00002.681218,00002.563233,-00002.882849,-00000.259880,-00000.332136,00000.171913,-00000.044021,00000.134369
0000000001133,00002.577961,00002.281315,00001.972037,00002.757064,00002.901507,00003.005325,00002.749577,00003.254895,00002.681469,00002.561628,-00002.897671,-00000.262031,-00000.328319,00000.175976,-00000.042839,00000.134579
0000000001134,00002.576356,00002.281904,00001.974653,00002.756240,00002.902028,00003.005301,00002.750126,00003.255205,00002.681956,00002.560473,-00002.911288,-00000.264771,-00000.324831,00000.180089,-00000.041829,00000.134342
0000000001135,00002.574826,00002.282383,00001.977011,00002.755956,00002.902502,00003.005394,00002.750308,00003.255946,00002.682532,00002.559470,-00002.922818,-00000.268054,-00000.321219,00000.184636,-00000.041185,00000.133796
0000000001136,00002.573459,00002.283610,00001.979964,00002.755618,00002.902583,00003.005373,00002.750413,00003.256210,00002.682947,00002.558487,-00002.933322,-00000.271112,-00000.317524,00000.188864,-00000.040325,00000.132868
0000000001137,00002.571793,00002.286195,00001.983059,00002.755739,00002.902986,00003.005453,00002.750931,00003.256479,00002.684163,00002.557270,-00002.942775,-00000.273180,-00000.314086,00000.192735,-00000.039052,00000.131677
0000000001138,00002.570630,00002.289053,00001.986298,00002.755451,00002.903418,00003.005072,00002.751020,00003.256703,00002.684879,00002.556070,-00002.951354,-00000.274333,-00000.310941,00000.197059,-00000.037231,00000.130525
0000000001139,00002.569937,00002.291616,00001.988934,00002.755191,00002.903399,00003.005140,00002.751098,00003.257294,00002.685552,00002.555397,-00002.959401,-00000.275005,-00000.308015,00000.201806,-00000.035059,00000.130236
0000000001140,00002.568947,00002.294413,00001.991328,00002.755308,00002.903040,00003.005542,00002.751536,00003.257485,00002.686524,00002.554375,-00002.967793,-00000.275986,-00000.304974,00000.206938,-00000.033509,00000.129981
0000000001141,00002.568358,00002.296958,00001.993934,00002.755450,00002.903387,00003.005600,00002.751603,00003.257989,00002.687459,00002.553440,-00002.977908,-00000.278373,-00000.302483,00000.211342,-00000.032748,00000.129735
0000000001142,00002.567514,00002.299338,00001.996699,00002.755550,00002.903445,00003.005942,00002.751613,00003.258514,00002.688650,00002.552207,-00002.987955,-00000.281384,-00000.300620,00000.215348,-00000.032517,00000.128792
0000000001143,00002.566650,00002.301867,00002.000006,00002.755671,00002.903377,00003.005991,00002.752033,00003.258580,00002.689808,00002.551411,-00002.997291,-00000.284142,-00000.298862,00000.219097,-00000.032594,00000.127858
0000000001144,00002.565932,00002.304982,00002.003447,00002.755756,00002.903426,00003.005556,00002.752767,00003.258665,00002.690822,00002.550724,-00003.006932,-00000.286706,-00000.297639,00000.223233,-00000.033486,00000.128143
0000000001145,00002.565559,00002.307498,00002.007351,00002.755859,00002.903368,00003.005598,00002.753124,00003.259446,00002.691809,00002.549683,-00003.018509,-00000.289779,-00000.296868,00000.227150,-00000.035366,00000.128799
0000000001146,00002.564948,00002.309424,00002.012458,00002.755931,00002.903773,00003.005228,00002.753750,00003.259881,00002.692671,00002.548736,-00003.031070,-00000.292324,-00000.296553,00000.230308,-00000.037577,00000.129405
0000000001147,00002.564267,00002.310840,00002.017958,00002.756018,00002.903361,00003.005264,00002.754054,00003.260909,00002.693511,00002.547850,-00003.043827,-00000.293852,-00000.296622,00000.232554,-00000.039903,00000.130689
0000000001148,00002.563747,00002.312480,00002.023756,00002.756443,00002.903706,00003.005312,00002.754949,00003.262368,00002.694608,00002.547770,-00003.055971,-00000.294205,-00000.297079,00000.233792,-00000.042873,00000.133381
0000000001149,00002.563531,00002.313323,00002.029526,00002.756880,00002.904081,00003.005342,00002.755933,00003.263969,00002.695324,00002.548103,-00003.067920,-00000.293691,-00000.297138,00000.234253,-00000.045579,00000.137013
0000000001150,00002.563813,00002.314356,00002.035188,00002.757604,00002.904374,00003.005383,00002.756332,00003.265210,00002.696258,00002.548760,-00003.078984,-00000.292178,-00000.296801,00000.234944,-00000.045930,00000.139668
0000000001151,00002.563992,00002.316525,00002.040463,00002.759065,00002.904693,00003.005409,00002.757170,00003.266210,00002.697592,00002.548682,-00003.088430,-00000.290652,-00000.296488,00000.235699,-00000.045331,00000.140947
0000000001152,00002.564595,00002.318130,00002.045646,00002.760770,00002.905305,00003.005443,00002.757873,00003.267267,00002.698387,00002.548516,-00003.096035,-00000.290452,-00000.296202,00000.235924,-00000.044179,00000.140667
0000000001153,00002.564747,00002.319613,00002.050137,00002.762013,00002.905214,00003.005828,00002.758223,00003.268118,00002.699160,00002.548086,-00003.101900,-00000.290604,-00000.296299,00000.236204,-00000.042944,00000.140304
0000000001154,00002.565624,00002.321342,00002.054549,00002.763464,00002.905373,00003.006220,00002.758459,00003.269018,00002.700200,00002.548307,-00003.105834,-00000.291160,-00000.296055,00000.236396,-00000.041601,00000.140066
0000000001155,00002.566479,00002.322968,00002.059097,00002.764523,00002.905658,00003.006548,00002.758757,00003.270106,00002.701221,00002.548667,-00003.107562,-00000.292378,-00000.296137,00000.236634,-00000.040186,00000.139757
0000000001156,00002.567225,00002.325166,00002.062853,00002.765759,00002.905793,00003.006519,00002.759320,00003.270872,00002.702469,00002.548855,-00003.107646,-00000.293939,-00000.296655,00000.236435,-00000.039405,00000.140281
0000000001157,00002.568678,00002.327275,00002.066726,00002.767022,00002.906036,00003.006798,00002.759574,00003.271798,00002.703338,00002.549162,-00003.106214,-00000.295339,-00000.297450,00000.235549,-00000.038564,00000.140018
0000000001158,00002.569676,00002.328783,00002.069923,00002.768437,00002.905788,00003.006773,00002.759691,00003.272450,00002.704400,00002.549322,-00003.103747,-00000.296668,-00000.298254,00000.234291,-00000.038262,00000.139012
0000000001159,00002.571276,00002.330216,00002.072857,00002.770239,00002.905632,00003.007011,00002.759907,00003.273238,00002.705140,00002.549946,-00003.100351,-00000.297497,-00000.299294,00000.233174,-00000.037546,00000.138062
0000000001160,00002.573214,00002.331500,00002.075579,00002.773620,00002.905784,00003.007353,00002.760007,00003.273793,00002.706044,00002.550445,-00003.096436,-00000.297902,-00000.300341,00000.231740,-00000.036563,00000.136843
0000000001161,00002.574576,00002.333083,00002.078076,00002.776967,00002.906014,00003.007555,00002.760554,00003.274101,00002.707037,00002.550976,-00003.091732,-00000.297882,-00000.301590,00000.230427,-00000.035954,00000.135672
0000000001162,00002.576226,00002.334538,00002.080393,00002.779120,00002.906143,00003.007483,00002.761001,00003.274574,00002.707807,00002.551401,-00003.086222,-00000.298591,-00000.302844,00000.228844,-00000.035843,00000.134271
0000000001163,00002.578111,00002.335523,00002.083245,00002.780881,00002.906339,00003.007655,00002.761104,00003.275199,00002.708652,00002.551853,-00003.079678,-00000.299299,-00000.303906,00000.227363,-00000.035686,00000.132186
0000000001164,00002.579879,00002.336762,00002.085943,00002.782351,00002.906449,00003.007957,00002.761122,00003.275964,00002.712935,00002.552214,-00003.073174,-00000.299177,-00000.305337,00000.226015,-00000.035592,00000.130631
0000000001165,00002.581484,00002.338326,00002.088371,00002.784576,00002.906615,00003.008103,00002.761572,00003.276496,00002.717646,00002.552599,-00003.066151,-00000.298691,-00000.306604,00000.224754,-00000.035096,00000.129944
0000000001166,00002.583351,00002.340106,00002.089942,00002.787641,00002.906346,00003.008360,00002.761587,00003.276785,00002.718027,00002.552907,-00003.057712,-00000.297136,-00000.309273,00000.222881,-00000.033565,00000.129709
0000000001167,00002.585805,00002.341438,00002.091283,00002.790261,00002.906488,00003.008122,00002.761971,00003.276875,00002.722037,00002.553598,-00003.043389,-00000.295997,-00000.312166,00000.220719,-00000.033142,00000.129487
0000000001168,00002.588121,00002.342591,00002.092621,00002.792508,00002.906622,00003.007978,00002.762347,00003.277121,00002.725626,00002.554585,-00003.029312,-00000.295398,-00000.315163,00000.218762,-00000.032927,00000.129286
0000000001169,00002.590573,00002.344087,00002.093762,00002.795101,00002.906743,00003.008138,00002.762673,00003.277560,00002.729040,00002.555173,-00003.017119,-00000.294792,-00000.317989,00000.216559,-00000.032205,00000.128734
0000000001170,00002.593270,00002.345068,00002.094901,00002.797013,00002.906494,00003.008378,00002.762630,00003.278132,00002.732096,00002.555651,-00003.005135,-00000.294282,-00000.320541,00000.214167,-00000.031659,00000.128201
0000000001171,00002.595357,00002.346342,00002.095873,00002.799221,00002.906596,00003.008514,00002.762908,00003.278143,00002.734639,00002.556151,-00002.994030,-00000.293766,-00000.323309,00000.211566,-00000.030681,00000.128094
0000000001172,00002.597653,00002.347177,00002.096842,00002.801212,00002.906384,00003.009082,00002.762871,00003.278630,00002.737240,00002.556921,-00002.983465,-00000.293332,-00000.325844,00000.208442,-00000.030216,00000.128365
0000000001173,00002.600156,00002.347536,00002.097670,00002.803454,00002.906109,00003.009198,00002.762745,00003.279003,00002.739405,00002.557710,-00002.972922,-00000.292530,-00000.328564,00000.205139,-00000.029384,00000.128637
0000000001174,00002.601747,00002.348610,00002.098495,00002.807325,00002.906291,00003.008955,00002.763077,00003.279055,00002.741620,00002.558365,-00002.962114,-00000.291798,-00000.331085,00000.202479,-00000.028263,00000.128506
0000000001175,00002.603878,00002.349641,00002.099199,00002.811773,00002.906420,00003.009417,00002.762969,00003.279372,00002.743463,00002.559037,-00002.951689,-00000.290752,-00000.333762,00000.200030,-00000.027191,00000.128011
0000000001176,00002.605595,00002.350555,00002.099902,00002.815432,00002.906575,00003.009573,00002.763252,00003.279778,00002.745348,00002.559957,-00002.941037,-00000.289040,-00000.336634,00000.197766,-00000.026599,00000.128262
0000000001177,00002.607409,00002.351433,00002.100502,00002.818493,00002.906685,00003.009603,00002.763160,00003.280048,00002.746554,00002.560892,-00002.930710,-00000.287061,-00000.339276,00000.195681,-00000.026413,00000.128204
0000000001178,00002.609234,00002.352574,00002.101100,00002.820882,00002.906454,00003.010099,00002.763038,00003.280758,00002.748159,00002.561675,-00002.919828,-00000.285967,-00000.341721,00000.194479,-00000.025909,00000.126966
0000000001179,00002.610778,00002.353684,00002.101610,00002.822763,00002.906184,00003.010487,00002.762960,00003.280987,00002.749912,00002.562108,-00002.909223,-00000.285008,-00000.343970,00000.193793,-00000.025751,00000.125829
0000000001180,00002.612695,00002.354293,00002.102119,00002.824434,00002.906351,00003.010909,00002.762856,00003.281591,00002.751278,00002.562775,-00002.897782,-00000.283714,-00000.346414,00000.193132,-00000.025685,00000.125500
0000000001181,00002.614372,00002.354875,00002.102917,00002.826035,00002.906847,00003.010877,00002.763152,00003.281787,00002.752407,00002.563506,-00002.886578,-00000.282172,-00000.348692,00000.192548,-00000.025549,00000.125983
0000000001182,00002.616003,00002.355393,00002.103713,00002.828183,00002.906988,00003.011236,00002.762701,00003.281938,00002.753570,00002.563712,-00002.875750,-00000.279619,-00000.350773,00000.191986,-00000.025130,00000.126429
0000000001183,00002.617068,00002.356251,00002.103666,00002.830997,00002.906685,00003.011209,00002.762590,00003.282104,00002.754531,00002.564334,-00002.866211,-00000.276492,-00000.352712,00000.190763,-00000.024290,00000.127203
0000000001184,00002.618094,00002.357055,00002.103981,00002.833551,00002.907168,00003.011152,00002.762932,00003.282233,00002.755884,00002.564871,-00002.857719,-00000.273593,-00000.354846,00000.188833,-00000.023207,00000.128671
0000000001185,00002.619875,00002.357745,00002.104572,00002.837032,00002.907322,00003.011080,00002.763128,00003.282484,00002.757492,00002.566222,-00002.841644,-00000.269915,-00000.359039,00000.183972,-00000.022296,00000.130943
0000000001186,00002.620647,00002.358058,00002.104484,00002.838400,00002.906685,00003.011060,00002.762685,00003.282242,00002.758188,00002.566256,-00002.834368,-00000.269409,-00000.360699,00000.181851,-00000.022050,00000.131033
0000000001187,00002.622410,00002.359324,00002.105001,00002.840798,00002.906910,00003.011002,00002.762918,00003.282492,00002.759816,00002.567038,-00002.820677,-00000.267804,-00000.364021,00000.176940,-00000.022399,00000.131502
0000000001188,00002.623043,00002.360229,00002.104469,00002.842211,00002.906583,00003.010604,00002.762766,00003.282209,00002.760696,00002.567369,-00002.814187,-00000.267113,-00000.366064,00000.174552,-00000.022620,00000.132253
0000000001189,00002.625176,00002.361172,00002.104988,00002.844767,00002.906460,00003.010251,00002.762624,00003.282826,00002.761588,00002.568711,-00002.802408,-00000.265124,-00000.369314,00000.170364,-00000.022158,00000.134354
0000000001190,00002.625915,00002.361628,00002.104834,00002.845920,00002.906231,00003.010293,00002.762614,00003.282577,00002.762380,00002.568941,-00002.797447,-00000.263877,-00000.370547,00000.168529,-00000.022277,00000.134148
0000000001191,00002.626991,00002.362337,00002.105067,00002.846944,00002.906356,00003.010676,00002.762504,00003.282627,00002.763073,00002.569490,-00002.793106,-00000.262342,-00000.371718,00000.166798,-00000.023217,00000.135418
0000000001192,00002.628174,00002.364418,00002.105496,00002.848071,00002.906993,00003.010675,00002.763127,00003.282819,00002.764337,00002.570516,-00002.785914,-00000.258160,-00000.373765,00000.164126,-00000.024844,00000.139225
0000000001193,00002.628710,00002.365367,00002.105693,00002.848960,00002.906719,00003.010705,00002.763428,00003.282585,00002.765274,00002.570629,-00002.782627,-00000.256693,-00000.375384,00000.162796,-00000.025910,00000.140203
0000000001194,00002.631088,00002.367722,00002.107118,00002.850876,00002.906939,00003.010700,00002.763914,00003.282784,00002.767299,00002.571486,-00002.775904,-00000.254076,-00000.377974,00000.160356,-00000.028588,00000.143300
0000000001195,00002.632750,00002.369365,00002.108694,00002.856860,00002.907489,00003.009970,00002.765778,00003.282590,00002.769385,00002.572215,-00002.769456,-00000.250398,-00000.379091,00000.158278,-00000.029779,00000.146298
0000000001196,00002.633255,00002.369962,00002.109751,00002.859290,00002.907864,00003.010001,00002.767024,00003.282979,00002.770321,00002.572867,-00002.765422,-00000.248789,-00000.379977,00000.157330,-00000.029764,00000.147042
0000000001197,00002.634595,00002.371997,00002.110935,00002.863298,00002.907914,00003.009375,00002.768789,00003.282394,00002.771958,00002.574842,-00002.753276,-00000.247710,-00000.382247,00000.154614,-00000.031142,00000.146219
0000000001198,00002.635369,00002.373406,00002.111849,00002.864895,00002.907993,00003.009491,00002.769334,00003.282594,00002.773037,00002.576105,-00002.746408,-00000.247394,-00000.383228,00000.153970,-00000.031710,00000.145852
0000000001199,00002.637120,00002.374929,00002.114898,00002.868069,00002.907661,00003.009303,00002.770030,00003.282429,00002.774633,00002.577962,-00002.733824,-00000.245798,-00000.385015,00000.152842,-00000.032436,00000.144480
0000000001200,00002.638974,00002.376588,00002.117857,00002.872222,00002.907378,00003.010232,00002.770259,00003.283377,00002.775992,00002.580268,-00002.722386,-00000.242987,-00000.386535,00000.151157,-00000.032329,00000.143675
0000000001201,00002.639765,00002.377395,00002.118923,00002.873892,00002.907760,00003.010234,00002.770790,00003.283705,00002.776846,00002.581097,-00002.717875,-00000.241208,-00000.387225,00000.150428,-00000.032143,00000.144267
0000000001202,00002.640552,00002.378001,00002.120375,00002.875395,00002.908226,00003.010297,00002.771543,00003.283821,00002.777149,00002.582231,-00002.713375,-00000.239507,-00000.388193,00000.149359,-00000.031513,00000.144804
0000000001203,00002.641532,00002.379204,00002.122519,00002.878096,00002.908222,00003.010352,00002.772636,00003.283473,00002.778496,00002.583177,-00002.704615,-00000.236543,-00000.389967,00000.147103,-00000.030817,00000.143588
0000000001204,00002.642729,00002.379865,00002.124707,00002.881122,00002.908581,00003.010762,00002.772477,00003.284266,00002.779643,00002.584707,-00002.696069,-00000.233295,-00000.391477,00000.144094,-00000.030588,00000.143641
0000000001205,00002.643626,00002.380363,00002.125311,00002.882824,00002.908183,00003.011126,00002.772442,00003.284560,00002.780170,00002.585264,-00002.691725,-00000.232251,-00000.392528,00000.142401,-00000.030882,00000.143526
0000000001206,00002.644512,00002.380489,00002.125996,00002.885146,00002.907097,00003.011421,00002.771950,00003.284103,00002.781069,00002.586122,-00002.677840,-00000.231092,-00000.395471,00000.137189,-00000.031732,00000.140323
0000000001207,00002.645342,00002.380907,00002.126504,00002.886198,00002.907550,00003.011408,00002.772645,00003.284171,00002.781451,00002.587227,-00002.669609,-00000.230191,-00000.397685,00000.133763,-00000.033022,00000.138499
0000000001208,00002.646698,00002.381678,00002.127374,00002.889832,00002.907646,00003.011298,00002.773937,00003.284134,00002.782522,00002.588518,-00002.654659,-00000.225710,-00000.403127,00000.126207,-00000.035005,00000.136044
0000000001209,00002.647668,00002.382031,00002.127746,00002.891963,00002.908072,00003.011577,00002.774533,00003.284053,00002.783156,00002.589488,-00002.648569,-00000.222643,-00000.405173,00000.123239,-00000.035704,00000.135693
0000000001210,00002.649404,00002.382634,00002.128068,00002.895828,00002.907728,00003.011442,00002.775181,00003.283671,00002.783973,00002.591168,-00002.637111,-00000.218559,-00000.409501,00000.117611,-00000.037650,00000.134018
0000000001211,00002.650882,00002.383874,00002.128706,00002.899119,00002.907436,00003.012053,00002.775733,00003.283708,00002.785394,00002.592236,-00002.624454,-00000.216171,-00000.413186,00000.113183,-00000.038582,00000.133317
0000000001212,00002.652503,00002.386017,00002.129611,00002.901558,00002.907186,00003.012210,00002.776202,00003.284103,00002.786967,00002.593871,-00002.613316,-00000.214864,-00000.417048,00000.109050,-00000.039012,00000.133084
0000000001213,00002.653065,00002.387139,00002.129877,00002.902838,00002.907237,00003.012521,00002.776598,00003.284173,00002.788033,00002.594390,-00002.608269,-00000.214845,-00000.418728,00000.106998,-00000.039413,00000.133354
0000000001214,00002.654724,00002.388434,00002.130608,00002.905087,00002.907017,00003.012971,00002.777302,00003.284499,00002.789576,00002.595704,-00002.598087,-00000.215186,-00000.422491,00000.102334,-00000.039357,00000.133478
0000000001215,00002.655058,00002.389395,00002.131092,00002.906073,00002.907156,00003.012403,00002.777977,00003.284416,00002.790480,00002.596501,-00002.591464,-00000.215544,-00000.424531,00000.100106,-00000.038911,00000.132971
0000000001216,00002.656421,00002.390355,00002.132368,00002.908203,00002.906949,00003.012508,00002.778113,00003.284343,00002.791659,00002.597501,-00002.577613,-00000.216507,-00000.428520,00000.095015,-00000.037116,00000.132426
0000000001217,00002.657218,00002.391172,00002.133091,00002.910016,00002.906772,00003.012598,00002.777866,00003.284280,00002.793026,00002.598353,-00002.564734,-00000.216964,-00000.432279,00000.090319,-00000.035950,00000.133413
0000000001218,00002.658154,00002.391537,00002.133409,00002.910689,00002.906436,00003.012861,00002.777394,00003.284278,00002.793269,00002.598487,-00002.558128,-00000.217494,-00000.434320,00000.087859,-00000.035813,00000.134412
0000000001219,00002.660144,00002.392541,00002.133978,00002.911770,00002.905972,00003.012898,00002.777617,00003.284225,00002.794033,00002.598466,-00002.544518,-00000.218893,-00000.439030,00000.083139,-00000.035929,00000.138006
0000000001220,00002.661941,00002.392822,00002.134232,00002.912203,00002.905821,00003.013047,00002.777477,00003.284491,00002.794562,00002.599023,-00002.537866,-00000.220115,-00000.441306,00000.080849,-00000.036908,00000.139779
0000000001221,00002.665908,00002.393998,00002.135041,00002.913421,00002.905449,00003.013419,00002.777324,00003.285132,00002.794771,00002.599649,-00002.525092,-00000.222938,-00000.446065,00000.076083,-00000.039401,00000.142213
0000000001222,00002.669285,00002.395361,00002.136093,00002.914821,00002.905496,00003.013010,00002.778646,00003.284589,00002.796038,00002.600544,-00002.512767,-00000.225704,-00000.449029,00000.071662,-00000.040072,00000.144284
0000000001223,00002.673249,00002.396159,00002.138076,00002.916013,00002.906260,00003.012662,00002.779045,00003.285216,00002.796390,00002.601669,-00002.497921,-00000.228058,-00000.451552,00000.067536,-00000.040644,00000.146411
0000000001224,00002.674838,00002.396930,00002.138790,00002.916940,00002.906419,00003.012550,00002.778871,00003.285201,00002.796783,00002.602394,-00002.489009,-00000.230022,-00000.452860,00000.065713,-00000.040919,00000.147205
0000000001225,00002.677613,00002.397858,00002.139647,00002.918543,00002.906321,00003.012271,00002.777786,00003.285011,00002.797025,00002.603244,-00002.470077,-00000.234636,-00000.455176,00000.062109,-00000.041364,00000.147083
0000000001226,00002.679187,00002.398452,00002.140948,00002.918873,00002.906485,00003.012114,00002.777297,00003.285223,00002.796946,00002.604167,-00002.460565,-00000.237249,-00000.455837,00000.060671,-00000.041182,00000.146605
0000000001227,00002.682041,00002.399878,00002.142572,00002.920188,00002.906377,00003.011899,00002.776808,00003.285029,00002.797527,00002.606567,-00002.440784,-00000.242240,-00000.457710,00000.057817,-00000.040500,00000.145484
0000000001228,00002.683693,00002.400354,00002.144047,00002.920759,00002.906892,00003.011830,00002.776801,00003.285383,00002.797769,00002.607995,-00002.430204,-00000.245012,-00000.458880,00000.056375,-00000.040415,00000.144876
0000000001229,00002.687328,00002.401135,00002.147024,00002.922520,00002.906723,00003.012383,00002.776023,00003.285892,00002.798227,00002.610552,-00002.407681,-00000.250663,-00000.461752,00000.052709,-00000.040572,00000.144738
0000000001230,00002.690422,00002.402163,00002.149559,00002.924018,00002.906580,00003.011765,00002.775724,00003.285962,00002.797891,00002.612365,-00002.385968,-00000.255111,-00000.465285,00000.048861,-00000.040344,00000.144257
0000000001231,00002.691775,00002.402799,00002.150853,00002.925041,00002.907083,00003.011637,00002.775791,00003.285749,00002.798128,00002.613336,-00002.375835,-00000.257649,-00000.466691,00000.046948,-00000.039885,00000.143281
0000000001232,00002.694571,00002.403942,00002.152456,00002.926890,00002.907249,00003.011130,00002.775889,00003.285478,00002.798895,00002.615099,-00002.357769,-00000.262509,-00000.469852,00000.043595,-00000.039396,00000.140477
0000000001233,00002.696388,00002.403729,00002.153191,00002.927723,00002.906972,00003.011155,00002.775562,00003.285763,00002.799069,00002.615895,-00002.349733,-00000.264807,-00000.470854,00000.042127,-00000.039366,00000.139054
0000000001234,00002.699223,00002.404008,00002.154084,00002.929173,00002.906429,00003.011808,00002.775331,00003.286215,00002.799333,00002.616551,-00002.335549,-00000.269328,-00000.473396,00000.039491,-00000.038592,00000.136516
0000000001235,00002.701637,00002.404609,00002.154480,00002.930408,00002.906329,00003.012002,00002.775861,00003.286237,00002.799559,00002.617835,-00002.322022,-00000.272814,-00000.475561,00000.037246,-00000.038295,00000.133630
0000000001236,00002.703251,00002.404626,00002.154990,00002.930891,00002.906470,00003.012197,00002.775942,00003.286442,00002.799590,00002.618391,-00002.315712,-00000.274364,-00000.476523,00000.036241,-00000.038378,00000.131635
0000000001237,00002.705429,00002.405135,00002.155615,00002.931145,00002.906364,00003.011970,00002.776381,00003.286068,00002.799415,00002.619039,-00002.302958,-00000.277102,-00000.478585,00000.033754,-00000.038476,00000.126573
0000000001238,00002.706369,00002.405609,00002.155723,00002.931628,00002.906535,00003.011890,00002.777112,00003.285855,00002.799914,00002.619133,-00002.296875,-00000.278308,-00000.479698,00000.032675,-00000.038499,00000.123547
0000000001239,00002.708083,00002.405972,00002.156239,00002.931047,00002.906783,00003.011708,00002.777739,00003.285930,00002.800053,00002.620033,-00002.289099,-00000.280096,-00000.481651,00000.030718,-00000.038942,00000.118599
0000000001240,00002.709905,00002.406643,00002.156678,00002.931277,00002.906630,00003.011554,00002.778636,00003.285632,00002.800172,00002.620074,-00002.283931,-00000.281255,-00000.483314,00000.028690,-00000.040407,00000.115475
0000000001241,00002.710514,00002.406922,00002.156676,00002.931392,00002.906758,00003.011472,00002.778903,00003.285509,00002.800590,00002.620096,-00002.282440,-00000.281761,-00000.484043,00000.027576,-00000.041431,00000.114110
0000000001242,00002.712338,00002.406727,00002.157050,00002.931209,00002.906610,00003.011715,00002.778901,00003.285636,00002.800266,00002.620490,-00002.277536,-00000.282673,-00000.485713,00000.024926,-00000.042526,00000.110566
0000000001243,00002.712777,00002.407393,00002.157007,00002.931332,00002.906700,00003.011673,00002.779015,00003.285470,00002.800358,00002.620810,-00002.274952,-00000.283082,-00000.486660,00000.023787,-00000.043025,00000.108792
0000000001244,00002.714264,00002.407127,00002.156969,00002.931520,00002.906197,00003.012249,00002.778634,00003.285603,00002.800431,00002.621098,-00002.268259,-00000.283798,-00000.488666,00000.021339,-00000.044246,00000.106400
0000000001245,00002.714903,00002.407036,00002.156968,00002.931591,00002.906013,00003.012462,00002.778536,00003.285836,00002.800426,00002.621420,-00002.263440,-00000.284109,-00000.489741,00000.020025,-00000.044561,00000.104979
0000000001246,00002.716074,00002.406824,00002.157299,00002.931740,00002.905612,00003.012921,00002.777863,00003.285552,00002.800127,00002.621980,-00002.254105,-00000.284309,-00000.491652,00000.018862,-00000.045916,00000.101341
0000000001247,00002.716608,00002.407072,00002.157272,00002.931816,00002.905822,00003.012795,00002.777671,00003.285812,00002.800184,00002.622586,-00002.249961,-00000.284199,-00000.492137,00000.018568,-00000.046533,00000.099891
0000000001248,00002.717525,00002.406854,00002.157195,00002.931570,00002.905812,00003.012479,00002.777127,00003.285894,00002.799920,00002.623698,-00002.240454,-00000.284023,-00000.493329,00000.017983,-00000.047957,00000.097010
0000000001249,00002.718282,00002.407524,00002.157148,00002.931976,00002.906016,00003.012664,00002.777166,00003.286084,00002.800017,00002.623844,-00002.235149,-00000.283952,-00000.494046,00000.017336,-00000.048361,00000.095190
0000000001250,00002.718950,00002.407964,00002.156726,00002.932068,00002.905977,00003.012367,00002.776697,00003.285762,00002.800141,00002.624769,-00002.225668,-00000.283450,-00000.495317,00000.016209,-00000.049514,00000.092282
0000000001251,00002.719882,00002.407977,00002.156730,00002.932147,00002.906308,00003.012477,00002.776298,00003.285852,00002.799883,00002.625919,-00002.216871,-00000.283022,-00000.496398,00000.014525,-00000.050495,00000.090532
0000000001252,00002.720525,00002.407783,00002.156762,00002.932226,00002.906101,00003.012774,00002.775880,00003.286127,00002.799913,00002.626237,-00002.212965,-00000.283018,-00000.496877,00000.013799,-00000.050765,00000.089176
0000000001253,00002.721223,00002.408185,00002.156398,00002.932281,00002.905687,00003.012824,00002.775602,00003.286162,00002.800052,00002.626807,-00002.203517,-00000.283017,-00000.498089,00000.013198,-00000.051561,00000.087525
0000000001254,00002.721713,00002.407996,00002.156427,00002.932271,00002.905848,00003.013014,00002.775306,00003.286355,00002.799786,00002.627061,-00002.200213,-00000.283382,-00000.498829,00000.012904,-00000.052405,00000.086430
0000000001255,00002.721872,00002.408004,00002.156113,00002.932319,00002.905472,00003.013028,00002.774750,00003.286356,00002.799582,00002.627871,-00002.195564,-00000.283690,-00000.500114,00000.012799,-00000.054045,00000.085913
0000000001256,00002.722268,00002.407838,00002.156132,00002.932368,00002.905707,00003.013211,00002.775272,00003.286526,00002.799291,00002.628376,-00002.192967,-00000.283634,-00000.500309,00000.012560,-00000.054829,00000.086065
0000000001257,00002.723432,00002.407870,00002.156225,00002.932402,00002.905715,00003.013196,00002.776173,00003.286502,00002.799523,00002.629353,-00002.187582,-00000.283904,-00000.501374,00000.011418,-00000.056472,00000.086691
0000000001258,00002.723827,00002.408016,00002.155926,00002.932396,00002.905860,00003.013413,00002.776508,00003.286358,00002.799622,00002.629455,-00002.183375,-00000.283450,-00000.501830,00000.011291,-00000.057355,00000.087167
0000000001259,00002.724759,00002.407658,00002.156049,00002.931700,00002.906208,00003.013005,00002.776500,00003.285996,00002.799442,00002.630272,-00002.171797,-00000.283747,-00000.503032,00000.010337,-00000.059710,00000.086177
0000000001260,00002.725190,00002.407716,00002.155790,00002.931833,00002.906141,00003.013021,00002.776130,00003.285688,00002.799651,00002.630604,-00002.156862,-00000.284001,-00000.504055,00000.009526,-00000.060990,00000.084972
0000000001261,00002.725313,00002.407992,00002.155855,00002.931905,00002.906358,00003.012800,00002.776234,00003.285514,00002.800131,00002.630923,-00002.147844,-00000.283917,-00000.504690,00000.008814,-00000.061217,00000.084078
0000000001262,00002.726387,00002.408000,00002.155988,00002.932008,00002.906269,00003.012483,00002.775178,00003.284915,00002.799875,00002.631521,-00002.131029,-00000.283420,-00000.505829,00000.007140,-00000.061183,00000.081371
0000000001263,00002.727266,00002.407444,00002.156055,00002.931735,00002.906345,00003.012373,00002.774512,00003.284839,00002.799618,00002.631745,-00002.124392,-00000.283003,-00000.505976,00000.006178,-00000.061354,00000.080332
0000000001264,00002.728776,00002.407171,00002.156521,00002.932226,00002.905895,00003.012846,00002.773350,00003.285066,00002.799801,00002.632221,-00002.111790,-00000.281554,-00000.505473,00000.005622,-00000.062026,00000.079271
0000000001265,00002.730423,00002.406576,00002.156556,00002.931918,00002.905875,00003.012885,00002.772360,00003.284896,00002.799594,00002.632626,-00002.099973,-00000.279594,-00000.505044,00000.005512,-00000.063324,00000.078004
0000000001266,00002.730921,00002.406458,00002.156589,00002.932279,00002.905765,00003.012669,00002.772291,00003.284481,00002.799623,00002.632470,-00002.093755,-00000.278392,-00000.504852,00000.005485,-00000.063706,00000.077667
0000000001267,00002.731161,00002.406331,00002.156251,00002.931964,00002.905401,00003.012009,00002.771821,00003.284035,00002.800168,00002.632838,-00002.086071,-00000.276176,-00000.504879,00000.005395,-00000.064391,00000.077001
0000000001268,00002.732454,00002.405498,00002.156325,00002.931695,00002.905092,00003.012172,00002.771058,00003.284381,00002.799544,00002.633152,-00002.085335,-00000.273565,-00000.504538,00000.005319,-00000.064249,00000.078249
0000000001269,00002.732839,00002.405533,00002.155959,00002.931815,00002.904896,00003.012445,00002.770761,00003.284306,00002.799712,00002.633252,-00002.087452,-00000.271667,-00000.504413,00000.004907,-00000.064147,00000.079735
0000000001270,00002.733157,00002.405182,00002.154989,00002.932294,00002.904662,00003.012181,00002.770519,00003.283886,00002.799519,00002.633504,-00002.092315,-00000.268275,-00000.503780,00000.004177,-00000.064041,00000.082390
0000000001271,00002.733511,00002.405166,00002.154428,00002.932615,00002.904604,00003.012430,00002.770528,00003.283946,00002.799540,00002.633283,-00002.095700,-00000.266763,-00000.503694,00000.003854,-00000.064387,00000.083211
0000000001272,00002.733366,00002.405231,00002.153322,00002.933338,00002.904413,00003.012168,00002.770684,00003.283943,00002.799735,00002.632804,-00002.104778,-00000.263375,-00000.503167,00000.004007,-00000.064971,00000.084986
0000000001273,00002.733295,00002.405299,00002.152787,00002.933721,00002.904292,00003.012436,00002.770809,00003.283896,00002.799885,00002.632557,-00002.109598,-00000.261895,-00000.502364,00000.004062,-00000.065217,00000.085957
0000000001274,00002.733545,00002.404619,00002.152289,00002.933554,00002.903785,00003.012536,00002.770197,00003.283900,00002.799666,00002.632550,-00002.115884,-00000.259230,-00000.501672,00000.003458,-00000.064952,00000.086599
0000000001275,00002.733757,00002.404041,00002.152589,00002.933411,00002.904078,00003.012984,00002.769676,00003.284629,00002.799479,00002.632543,-00002.119784,-00000.256962,-00000.500721,00000.002218,-00000.065089,00000.086782
0000000001276,00002.733720,00002.403769,00002.152187,00002.933317,00002.904040,00003.013200,00002.769418,00003.284970,00002.799128,00002.632373,-00002.121484,-00000.255944,-00000.500452,00000.001338,-00000.064954,00000.086865
0000000001277,00002.733544,00002.402954,00002.152503,00002.932847,00002.904659,00003.013187,00002.769375,00003.285540,00002.798658,00002.632756,-00002.126365,-00000.254527,-00000.499681,-00000.000312,-00000.065453,00000.086646
0000000001278,00002.733058,00002.403183,00002.152083,00002.932824,00002.904958,00003.013019,00002.769580,00003.285415,00002.798876,00002.632533,-00002.128726,-00000.254113,-00000.499167,-00000.001079,-00000.065668,00000.086345
0000000001279,00002.732618,00002.402818,00002.152052,00002.931702,00002.905077,00003.013032,00002.771328,00003.285193,00002.798444,00002.632529,-00002.134344,-00000.254057,-00000.498951,-00000.002733,-00000.066061,00000.085115
0000000001280,00002.732232,00002.403013,00002.152020,00002.931435,00002.905270,00003.012857,00002.771995,00003.285094,00002.798590,00002.632324,-00002.138667,-00000.254363,-00000.499193,-00000.003638,-00000.066241,00000.084595
0000000001281,00002.731914,00002.402311,00002.152361,00002.930519,00002.905343,00003.012531,00002.773383,00003.284920,00002.798563,00002.632351,-00002.148975,-00000.254270,-00000.498973,-00000.004549,-00000.065823,00000.084713
0000000001282,00002.731644,00002.401712,00002.153014,00002.929377,00002.905768,00003.012254,00002.774203,00003.284772,00002.798540,00002.632374,-00002.160290,-00000.254553,-00000.499511,-00000.006049,-00000.064380,00000.085177
0000000001283,00002.731335,00002.402025,00002.152963,00002.929195,00002.906010,00003.012127,00002.775214,00003.284753,00002.798748,00002.632257,-00002.167198,-00000.255285,-00000.499773,-00000.006722,-00000.063558,00000.084587
0000000001284,00002.731151,00002.402195,00002.152801,00002.928613,00002.905973,00003.012273,00002.776123,00003.284266,00002.799060,00002.631568,-00002.185236,-00000.256506,-00000.500192,-00000.007899,-00000.062814,00000.082893
0000000001285,00002.731218,00002.402476,00002.153063,00002.928557,00002.906128,00003.012852,00002.776891,00003.284175,00002.799176,00002.631430,-00002.195869,-00000.257015,-00000.500359,-00000.008414,-00000.062884,00000.082912
0000000001286,00002.731414,00002.402216,00002.153611,00002.927707,00002.906436,00003.012891,00002.777551,00003.284501,00002.798699,00002.631590,-00002.214359,-00000.257978,-00000.501054,-00000.009702,-00000.062240,00000.082555
0000000001287,00002.731532,00002.402463,00002.153889,00002.927695,00002.906586,00003.013175,00002.778229,00003.284535,00002.799244,00002.631155,-00002.223845,-00000.258430,-00000.501578,-00000.010480,-00000.061950,00000.081821
0000000001288,00002.731319,00002.402568,00002.153952,00002.926972,00002.906826,00003.012802,00002.779053,00003.284444,00002.799483,00002.630630,-00002.243980,-00000.259183,-00000.502455,-00000.011098,-00000.061808,00000.080901
0000000001289,00002.731414,00002.402787,00002.154167,00002.926675,00002.906922,00003.012588,00002.779572,00003.284396,00002.799183,00002.630499,-00002.253845,-00000.259134,-00000.502820,-00000.011007,-00000.061588,00000.081066
0000000001290,00002.731581,00002.402844,00002.154188,00002.926467,00002.906749,00003.012665,00002.779834,00003.284688,00002.799068,00002.630434,-00002.272058,-00000.259057,-00000.503512,-00000.010822,-00000.060774,00000.081347
0000000001291,00002.731360,00002.402892,00002.154570,00002.926653,00002.906602,00003.013094,00002.780782,00003.285300,00002.799696,00002.630017,-00002.286838,-00000.259717,-00000.504101,-00000.009938,-00000.061533,00000.080497
0000000001292,00002.731476,00002.403061,00002.154761,00002.926269,00002.906726,00003.012920,00002.781223,00003.285225,00002.800106,00002.630051,-00002.292647,-00000.260000,-00000.504739,-00000.009914,-00000.062059,00000.079564
0000000001293,00002.731634,00002.402714,00002.155057,00002.925396,00002.906945,00003.012585,00002.781239,00003.285757,00002.799491,00002.630053,-00002.302914,-00000.260157,-00000.505871,-00000.009891,-00000.062626,00000.077165
0000000001294,00002.730680,00002.402781,00002.155309,00002.925741,00002.906769,00003.012663,00002.781253,00003.285484,00002.800056,00002.629330,-00002.310928,-00000.259565,-00000.506109,-00000.009145,-00000.063472,00000.076937
0000000001295,00002.730467,00002.402689,00002.155405,00002.926017,00002.906542,00003.012528,00002.780530,00003.285398,00002.800138,00002.629001,-00002.314469,-00000.259458,-00000.506226,-00000.009198,-00000.063458,00000.076656
