0000000001375,00002.714032,00002.006093,00002.327110,00003.151420,00002.863697,00002.899693,00002.746113,00003.292327,00002.814740,00002.393856,-00000.434629,-00000.058937,-00000.577289,-00000.004348,-00000.033026,-00000.293789
0000000001376,00002.713948,00002.006865,00002.327153,00003.151508,00002.864157,00002.899566,00002.746672,00003.292040,00002.815249,00002.394001,-00000.434597,-00000.058881,-00000.577147,-00000.004403,-00000.033114,-00000.293373
0000000001377,00002.713881,00002.007454,00002.327536,00003.151896,00002.864872,00002.899870,00002.747359,00003.292529,00002.815940,00002.394515,-00000.434577,-00000.059243,-00000.577066,-00000.004427,-00000.033557,-00000.293275
0000000001378,00002.714172,00002.007749,00002.327573,00003.151970,00002.864901,00002.900124,00002.747109,00003.292647,00002.816010,00002.394638,-00000.434549,-00000.059558,-00000.577307,-00000.004474,-00000.033995,-00000.293284
0000000001379,00002.714116,00002.008250,00002.327173,00003.152300,00002.864785,00002.900383,00002.746969,00003.292700,00002.816235,00002.394714,-00000.434533,-00000.059504,-00000.577601,-00000.004495,-00000.034372,-00000.293200
0000000001380,00002.714363,00002.008863,00002.327567,00003.152363,00002.865535,00002.900599,00002.747482,00003.293163,00002.816658,00002.395181,-00000.434509,-00000.059409,-00000.577444,-00000.004897,-00000.034382,-00000.293208
0000000001381,00002.714315,00002.009290,00002.327590,00003.151919,00002.865436,00002.900820,00002.747363,00003.293209,00002.816850,00002.395245,-00000.434495,-00000.059362,-00000.577331,-00000.004915,-00000.034702,-00000.292774
0000000001382,00002.714526,00002.009812,00002.327563,00003.151973,00002.865349,00002.901004,00002.747436,00003.293603,00002.817210,00002.395280,-00000.434475,-00000.059282,-00000.577197,-00000.004895,-00000.034711,-00000.292417
0000000001383,00002.714848,00002.010176,00002.327582,00003.151957,00002.865264,00002.901191,00002.746972,00003.293642,00002.817373,00002.395335,-00000.434463,-00000.059242,-00000.577463,-00000.004909,-00000.034984,-00000.292411
0000000001384,00002.714665,00002.010620,00002.327558,00003.152003,00002.865553,00002.900985,00002.747035,00003.293615,00002.817679,00002.395365,-00000.434445,-00000.059536,-00000.577712,-00000.004892,-00000.035354,-00000.292470
0000000001385,00002.714576,00002.010567,00002.327212,00003.151989,00002.865481,00002.900782,00002.746639,00003.293285,00002.817818,00002.395048,-00000.434435,-00000.059866,-00000.577939,-00000.004905,-00000.035587,-00000.292464
0000000001386,00002.714783,00002.010945,00002.327192,00003.152391,00002.865727,00002.900970,00002.746693,00003.292899,00002.818442,00002.394711,-00000.434421,-00000.059753,-00000.578151,-00000.004890,-00000.035902,-00000.292152
0000000001387,00002.714344,00002.010900,00002.326897,00003.152380,00002.865666,00002.900797,00002.746719,00003.292619,00002.818560,00002.394442,-00000.434412,-00000.059671,-00000.578345,-00000.004901,-00000.036100,-00000.292147
0000000001388,00002.714157,00002.010859,00002.326880,00003.151996,00002.865875,00002.900593,00002.746764,00003.292290,00002.818728,00002.394155,-00000.434399,-00000.059938,-00000.578525,-00000.005252,-00000.036368,-00000.292244
0000000001389,00002.714510,00002.010820,00002.326992,00003.151624,00002.866186,00002.900446,00002.746787,00003.292414,00002.818829,00002.394288,-00000.434392,-00000.059867,-00000.578689,-00000.005624,-00000.036536,-00000.292240
0000000001390,00002.714351,00002.010786,00002.326615,00003.151660,00002.866001,00002.900636,00002.746825,00003.292134,00002.818972,00002.394044,-00000.434381,-00000.060095,-00000.578843,-00000.005922,-00000.036765,-00000.291960
0000000001391,00002.714288,00002.010753,00002.326710,00003.152069,00002.866266,00002.900511,00002.747207,00003.292240,00002.819421,00002.393795,-00000.434375,-00000.060398,-00000.578983,-00000.006239,-00000.036908,-00000.291594
0000000001392,00002.714153,00002.010723,00002.326389,00003.152100,00002.866109,00002.900672,00002.747240,00003.292002,00002.819905,00002.393587,-00000.434366,-00000.060228,-00000.579114,-00000.006492,-00000.037102,-00000.291355
0000000001393,00002.714099,00002.010695,00002.326107,00003.152447,00002.865971,00002.900566,00002.747202,00003.291729,00002.819924,00002.393375,-00000.434361,-00000.060486,-00000.579233,-00000.006762,-00000.037224,-00000.291043
0000000001394,00002.713984,00002.010670,00002.326197,00003.152474,00002.866200,00002.900340,00002.747230,00003.291526,00002.819974,00002.393197,-00000.434716,-00000.060342,-00000.579344,-00000.006978,-00000.037753,-00000.291203
0000000001395,00002.713938,00002.010646,00002.325957,00003.152407,00002.866083,00002.900612,00002.747198,00003.291293,00002.819990,00002.393017,-00000.435074,-00000.060199,-00000.579446,-00000.007208,-00000.037857,-00000.291300
0000000001396,00002.713840,00002.010262,00002.326033,00003.152067,00002.866278,00002.900421,00002.747585,00003.291484,00002.820032,00002.393229,-00000.435013,-00000.060076,-00000.579541,-00000.007392,-00000.037944,-00000.291073
0000000001397,00002.714164,00002.010242,00002.325829,00003.152010,00002.866178,00002.900652,00002.747558,00003.291286,00002.820409,00002.393438,-00000.434956,-00000.060317,-00000.579627,-00000.007224,-00000.038032,-00000.290793
0000000001398,00002.714081,00002.009915,00002.325894,00003.151720,00002.866344,00002.900489,00002.747524,00003.291448,00002.820445,00002.393618,-00000.434904,-00000.060213,-00000.579708,-00000.007018,-00000.038106,-00000.290600
0000000001399,00002.713994,00002.009897,00002.325720,00003.151672,00002.866259,00002.900686,00002.747501,00003.291279,00002.820403,00002.393434,-00000.435218,-00000.060418,-00000.579781,-00000.006876,-00000.037819,-00000.290362
0000000001400,00002.714286,00002.009619,00002.325775,00003.151788,00002.866038,00002.900910,00002.747472,00003.291780,00002.820434,00002.393587,-00000.435537,-00000.060692,-00000.579850,-00000.007063,-00000.037882,-00000.290560
0000000001401,00002.714212,00002.009604,00002.325627,00003.151747,00002.865965,00002.900715,00002.747452,00003.291637,00002.820398,00002.393430,-00000.435803,-00000.060504,-00000.579912,-00000.006942,-00000.038000,-00000.290358
0000000001402,00002.714097,00002.009730,00002.325674,00003.151483,00002.866140,00002.900543,00002.747428,00003.291337,00002.820424,00002.393198,-00000.436075,-00000.060737,-00000.579971,-00000.006738,-00000.038053,-00000.290164
0000000001403,00002.714397,00002.009355,00002.325911,00003.151085,00002.866078,00002.900739,00002.747048,00003.291578,00002.820393,00002.393427,-00000.436302,-00000.060577,-00000.580024,-00000.006635,-00000.038154,-00000.289991
0000000001404,00002.714299,00002.009462,00002.325588,00003.150497,00002.866226,00002.900593,00002.747390,00003.291686,00002.820778,00002.393592,-00000.436533,-00000.060775,-00000.580074,-00000.006462,-00000.038199,-00000.289826
0000000001405,00002.714192,00002.009505,00002.325789,00003.150159,00002.866537,00002.900397,00002.747430,00003.291528,00002.820752,00002.393424,-00000.436727,-00000.061001,-00000.580119,-00000.006374,-00000.038285,-00000.289679
0000000001406,00002.714472,00002.009233,00002.326240,00003.150021,00002.866663,00002.900635,00002.747358,00003.291620,00002.820717,00002.393565,-00000.436924,-00000.060808,-00000.580162,-00000.006227,-00000.037961,-00000.289538
0000000001407,00002.714380,00002.009270,00002.326049,00003.149733,00002.866927,00002.900469,00002.747392,00003.291486,00002.821058,00002.393422,-00000.437088,-00000.061000,-00000.580200,-00000.006152,-00000.038034,-00000.289413
0000000001408,00002.714256,00002.009402,00002.325707,00003.149616,00002.866672,00002.900309,00002.747331,00003.291201,00002.821028,00002.393179,-00000.437256,-00000.060835,-00000.580236,-00000.006026,-00000.037758,-00000.289294
0000000001409,00002.714178,00002.009433,00002.325544,00003.149733,00002.866897,00002.900168,00002.747360,00003.291087,00002.821318,00002.393057,-00000.437033,-00000.060637,-00000.580269,-00000.005963,-00000.037457,-00000.289187
0000000001410,00002.714072,00002.009545,00002.325616,00003.149634,00002.867042,00002.900031,00002.747308,00003.290844,00002.821293,00002.392850,-00000.437176,-00000.060496,-00000.580300,-00000.005856,-00000.037223,-00000.289085
0000000001411,00002.714368,00002.009209,00002.325840,00003.149371,00002.867234,00002.899911,00002.747332,00003.291110,00002.821177,00002.393109,-00000.437349,-00000.060327,-00000.580691,-00000.005801,-00000.037329,-00000.288995
0000000001412,00002.714278,00002.009304,00002.325902,00003.149286,00002.867358,00002.899795,00002.747651,00003.291266,00002.821155,00002.393296,-00000.437471,-00000.060207,-00000.580717,-00000.005711,-00000.037492,-00000.288908
0000000001413,00002.714530,00002.009018,00002.326093,00003.149062,00002.867521,00002.900055,00002.747309,00003.291855,00002.821056,00002.393517,-00000.437618,-00000.060063,-00000.581050,-00000.005664,-00000.037583,-00000.288831
0000000001414,00002.714453,00002.009100,00002.326145,00003.148990,00002.867263,00002.899956,00002.747217,00003.291625,00002.821038,00002.393313,-00000.437721,-00000.059962,-00000.581072,-00000.005587,-00000.037359,-00000.288757
0000000001415,00002.714668,00002.008856,00002.325944,00003.148437,00002.867039,00002.900177,00002.746926,00003.291764,00002.820954,00002.393501,-00000.437847,-00000.059839,-00000.580992,-00000.005548,-00000.037074,-00000.288691
0000000001416,00002.714603,00002.008925,00002.325989,00003.148738,00002.867183,00002.900093,00002.746848,00003.291931,00002.821301,00002.393690,-00000.437572,-00000.059752,-00000.581011,-00000.005482,-00000.036883,-00000.288628
0000000001417,00002.714423,00002.009080,00002.325818,00003.148630,00002.866992,00002.900282,00002.746963,00003.291686,00002.821592,00002.393487,-00000.437316,-00000.059648,-00000.580943,-00000.005448,-00000.037003,-00000.288572
0000000001418,00002.714367,00002.008776,00002.325493,00003.148161,00002.866752,00002.900573,00002.746897,00003.291829,00002.821525,00002.393648,-00000.437445,-00000.059574,-00000.580959,-00000.005392,-00000.037203,-00000.288156
0000000001419,00002.714577,00002.008546,00002.325711,00003.148432,00002.866590,00002.900371,00002.746632,00003.291983,00002.821047,00002.394201,-00000.437590,-00000.059485,-00000.580902,-00000.005364,-00000.036942,-00000.287746
0000000001420,00002.714529,00002.008287,00002.325797,00003.148395,00002.866748,00002.900256,00002.746575,00003.291742,00002.820990,00002.394338,-00000.437700,-00000.059423,-00000.580916,-00000.005316,-00000.036750,-00000.287391
0000000001421,00002.714345,00002.008454,00002.325982,00003.148988,00002.866972,00002.900447,00002.746712,00003.291510,00002.821309,00002.394446,-00000.437460,-00000.059347,-00000.580866,-00000.004929,-00000.036528,-00000.287042
0000000001422,00002.714304,00002.008596,00002.326055,00003.148957,00002.867107,00002.900349,00002.746664,00003.291667,00002.821260,00002.394563,-00000.437554,-00000.059293,-00000.580878,-00000.004526,-00000.036364,-00000.286740
0000000001423,00002.714147,00002.008738,00002.325850,00003.149462,00002.866935,00002.900148,00002.746781,00003.291470,00002.821532,00002.394655,-00000.437713,-00000.059229,-00000.580836,-00000.004196,-00000.035813,-00000.286443
0000000001424,00002.714113,00002.008497,00002.325912,00003.150162,00002.866687,00002.900428,00002.746377,00003.291604,00002.821853,00002.394391,-00000.437429,-00000.059184,-00000.580846,-00000.003853,-00000.035311,-00000.286186
0000000001425,00002.713980,00002.008617,00002.326101,00003.150229,00002.866904,00002.900257,00002.746477,00003.291436,00002.822084,00002.394469,-00000.437202,-00000.059129,-00000.580811,-00000.003572,-00000.034841,-00000.285933
0000000001426,00002.713588,00002.008775,00002.325791,00003.150824,00002.866692,00002.900132,00002.746496,00003.291188,00002.822358,00002.394245,-00000.437324,-00000.059090,-00000.580819,-00000.003280,-00000.034413,-00000.285714
0000000001427,00002.713111,00002.008515,00002.325951,00003.150155,00002.866877,00002.899987,00002.746581,00003.291407,00002.822192,00002.394312,-00000.437130,-00000.059043,-00000.580789,-00000.003041,-00000.034014,-00000.285498
0000000001428,00002.713140,00002.008286,00002.326050,00003.150299,00002.867060,00002.899881,00002.746960,00003.291558,00002.822062,00002.394484,-00000.436871,-00000.059010,-00000.580796,-00000.002792,-00000.033650,-00000.285312
0000000001429,00002.713097,00002.008064,00002.325824,00003.150093,00002.866854,00002.899757,00002.747032,00003.291383,00002.822283,00002.394177,-00000.436706,-00000.058971,-00000.580770,-00000.002952,-00000.033672,-00000.285129
0000000001430,00002.712759,00002.007869,00002.325546,00003.149853,00002.866647,00002.899666,00002.746992,00003.291149,00002.822173,00002.393961,-00000.436848,-00000.058943,-00000.580776,-00000.003102,-00000.033725,-00000.284970
0000000001431,00002.712723,00002.008044,00002.325353,00003.150040,00002.866472,00002.899561,00002.747053,00003.290999,00002.821999,00002.393700,-00000.436708,-00000.058909,-00000.580754,-00000.002875,-00000.033381,-00000.284814
0000000001432,00002.713160,00002.007878,00002.325479,00003.150198,00002.866295,00002.899847,00002.746656,00003.291163,00002.821904,00002.393516,-00000.436466,-00000.058885,-00000.580760,-00000.002641,-00000.033064,-00000.284679
0000000001433,00002.713492,00002.007663,00002.325677,00003.150357,00002.866509,00002.900120,00002.746708,00003.291398,00002.821393,00002.393657,-00000.436346,-00000.058856,-00000.580741,-00000.002448,-00000.032771,-00000.284546
0000000001434,00002.713502,00002.007885,00002.325784,00003.150129,00002.866722,00002.900000,00002.746733,00003.291174,00002.821313,00002.393500,-00000.436503,-00000.058836,-00000.580383,-00000.002248,-00000.032501,-00000.284431
0000000001435,00002.713784,00002.007703,00002.325954,00003.149902,00002.866541,00002.900233,00002.746415,00003.291375,00002.821241,00002.393620,-00000.436402,-00000.058811,-00000.580367,-00000.002084,-00000.032251,-00000.284318
0000000001436,00002.714156,00002.007528,00002.326045,00003.149708,00002.866722,00002.900131,00002.746436,00003.291547,00002.820810,00002.393849,-00000.436172,-00000.058794,-00000.580062,-00000.001914,-00000.032021,-00000.284220
0000000001437,00002.714033,00002.007373,00002.326189,00003.149152,00002.866931,00002.899966,00002.746528,00003.291718,00002.820748,00002.393589,-00000.436449,-00000.058773,-00000.579685,-00000.001774,-00000.031809,-00000.284124
0000000001438,00002.713986,00002.007225,00002.326266,00003.148987,00002.866722,00002.900243,00002.746183,00003.291865,00002.820744,00002.393784,-00000.436616,-00000.058758,-00000.579788,-00000.001267,-00000.031613,-00000.284041
0000000001439,00002.713882,00002.007455,00002.326389,00003.148513,00002.866900,00002.900102,00002.746261,00003.291647,00002.820692,00002.393562,-00000.436851,-00000.058740,-00000.579831,-00000.001147,-00000.031070,-00000.283959
0000000001440,00002.713480,00002.007329,00002.326092,00003.147647,00002.867085,00002.899975,00002.746331,00003.291409,00002.820688,00002.393728,-00000.436994,-00000.058728,-00000.579556,-00000.001078,-00000.030540,-00000.283888
0000000001441,00002.713391,00002.007162,00002.326197,00003.147244,00002.867236,00002.899855,00002.746397,00003.291224,00002.820643,00002.393902,-00000.437194,-00000.058713,-00000.579229,-00000.000614,-00000.030441,-00000.283818
0000000001442,00002.713411,00002.007055,00002.325944,00003.147232,00002.867031,00002.899746,00002.746456,00003.291022,00002.821003,00002.393681,-00000.437316,-00000.058702,-00000.578995,-00000.000555,-00000.030352,-00000.283395
0000000001443,00002.713698,00002.006913,00002.326396,00003.147252,00002.867160,00002.900007,00002.746513,00003.291590,00002.820965,00002.393829,-00000.437486,-00000.058326,-00000.578717,-00000.000160,-00000.030268,-00000.282973
0000000001444,00002.713715,00002.006822,00002.326543,00003.146879,00002.867348,00002.899915,00002.746563,00003.291417,00002.821271,00002.394003,-00000.437590,-00000.058317,-00000.578518,00000.000253,-00000.030193,-00000.282613
0000000001445,00002.713597,00002.007064,00002.326565,00003.147258,00002.867458,00002.899774,00002.746611,00003.291175,00002.821602,00002.393766,-00000.437735,-00000.058360,-00000.578644,00000.000589,-00000.029757,-00000.282616
0000000001446,00002.713612,00002.006986,00002.326691,00003.147304,00002.867618,00002.900058,00002.746654,00003.291391,00002.821500,00002.393915,-00000.437460,-00000.058353,-00000.578837,00000.000578,-00000.029694,-00000.282672
0000000001447,00002.713874,00002.006829,00002.326347,00003.147264,00002.867349,00002.900302,00002.746695,00003.291548,00002.821418,00002.394076,-00000.437584,-00000.058389,-00000.578944,00000.000502,-00000.029686,-00000.282312
0000000001448,00002.713886,00002.006763,00002.326091,00003.146940,00002.867485,00002.900181,00002.747094,00003.291732,00002.821694,00002.394202,-00000.437713,-00000.058020,-00000.579108,00000.000492,-00000.029632,-00000.281997
0000000001449,00002.714109,00002.006630,00002.326161,00003.146543,00002.867618,00002.900388,00002.746766,00003.291865,00002.821625,00002.394340,-00000.437455,-00000.058051,-00000.579200,00000.000427,-00000.029625,-00000.281691
0000000001450,00002.714483,00002.006573,00002.326306,00003.146993,00002.867372,00002.900647,00002.746743,00003.292022,00002.821497,00002.394084,-00000.437202,-00000.058099,-00000.579340,00000.000782,-00000.029579,-00000.281423
0000000001451,00002.713947,00002.006460,00002.326002,00003.146655,00002.867123,00002.900461,00002.746827,00003.291773,00002.821801,00002.393838,-00000.437345,-00000.058126,-00000.579418,00000.000726,-00000.029573,-00000.280799
0000000001452,00002.713902,00002.006049,00002.326126,00003.146312,00002.867275,00002.900319,00002.746808,00003.291906,00002.821692,00002.394347,-00000.437493,-00000.058167,-00000.579174,00000.000666,-00000.029897,-00000.280208
0000000001453,00002.713809,00002.005952,00002.326230,00003.146388,00002.867426,00002.900160,00002.746879,00003.292057,00002.821588,00002.394500,-00000.437252,-00000.057827,-00000.578877,00000.000618,-00000.030255,-00000.279677
0000000001454,00002.714133,00002.005965,00002.326698,00003.146821,00002.867556,00002.900040,00002.746499,00003.292170,00002.821495,00002.394570,-00000.437015,-00000.057499,-00000.578670,00000.000929,-00000.030168,-00000.279174
0000000001455,00002.713691,00002.005883,00002.327150,00003.147248,00002.867684,00002.899905,00002.746560,00003.291935,00002.821769,00002.394701,-00000.436810,-00000.057572,-00000.578780,00000.001252,-00000.030110,-00000.278722
0000000001456,00002.713605,00002.005894,00002.327548,00003.147255,00002.867795,00002.899802,00002.746963,00003.292032,00002.821690,00002.394760,-00000.436971,-00000.057656,-00000.578966,00000.001154,-00000.030035,-00000.278293
0000000001457,00002.713591,00002.006187,00002.327570,00003.147618,00002.867904,00002.899687,00002.747014,00003.291832,00002.821923,00002.394871,-00000.437159,-00000.057718,-00000.579060,00000.001066,-00000.030349,-00000.277909
0000000001458,00002.713518,00002.006559,00002.327546,00003.147986,00002.867998,00002.899237,00002.746994,00003.291552,00002.821856,00002.394922,-00000.437296,-00000.057427,-00000.579219,00000.000982,-00000.030648,-00000.277181
0000000001459,00002.713506,00002.006445,00002.327928,00003.148296,00002.868091,00002.899139,00002.747401,00003.291745,00002.822055,00002.395379,-00000.437456,-00000.057117,-00000.579299,00000.000907,-00000.030915,-00000.276491
0000000001460,00002.713443,00002.006762,00002.327907,00003.148972,00002.868172,00002.899481,00002.747384,00003.291869,00002.822361,00002.395060,-00000.437573,-00000.057232,-00000.579796,00000.000473,-00000.031533,-00000.275872
0000000001461,00002.713433,00002.006666,00002.327869,00003.149598,00002.868251,00002.899760,00002.747367,00003.291670,00002.822530,00002.395086,-00000.437709,-00000.057331,-00000.580227,00000.000047,-00000.032123,-00000.275284
0000000001462,00002.713380,00002.006572,00002.327852,00003.150174,00002.868319,00002.900052,00002.747353,00003.291413,00002.822790,00002.395177,-00000.437808,-00000.057428,-00000.580288,-00000.000322,-00000.032648,-00000.274757
0000000001463,00002.713372,00002.006490,00002.328182,00003.150344,00002.868386,00002.899927,00002.747701,00003.291606,00002.822934,00002.395200,-00000.437924,-00000.057513,-00000.580655,-00000.000686,-00000.033151,-00000.274256
0000000001464,00002.713689,00002.006411,00002.328531,00003.150472,00002.867719,00002.900175,00002.747326,00003.291750,00002.823155,00002.395277,-00000.438009,-00000.057596,-00000.580707,-00000.001000,-00000.033598,-00000.273808
0000000001465,00002.713682,00002.006704,00002.328449,00003.150617,00002.867776,00002.900069,00002.747623,00003.291915,00002.823278,00002.395296,-00000.438108,-00000.057668,-00000.581019,-00000.001309,-00000.034026,-00000.273382
0000000001466,00002.713589,00002.006999,00002.328383,00003.150725,00002.867934,00002.899917,00002.747666,00003.291675,00002.823466,00002.395362,-00000.438180,-00000.057738,-00000.581426,-00000.001577,-00000.034407,-00000.273000
0000000001467,00002.713583,00002.006885,00002.328313,00003.150849,00002.867982,00002.899826,00002.747919,00003.291452,00002.823571,00002.395378,-00000.438264,-00000.057799,-00000.581692,-00000.001840,-00000.035134,-00000.273000
0000000001468,00002.713867,00002.006774,00002.328257,00003.151304,00002.867754,00002.900060,00002.747593,00003.291247,00002.823731,00002.395434,-00000.438325,-00000.057860,-00000.582038,-00000.002431,-00000.035821,-00000.273037
0000000001469,00002.713862,00002.006677,00002.328197,00003.151771,00002.867432,00002.900346,00002.747446,00003.291058,00002.823820,00002.395448,-00000.438397,-00000.057912,-00000.582265,-00000.003018,-00000.036440,-00000.272675
0000000001470,00002.714104,00002.006583,00002.328512,00003.151796,00002.867600,00002.900182,00002.747894,00003.291247,00002.823957,00002.395496,-00000.438449,-00000.057963,-00000.582560,-00000.003521,-00000.037025,-00000.272344
0000000001471,00002.714462,00002.006500,00002.328825,00003.151469,00002.867690,00002.900425,00002.747768,00003.291448,00002.823669,00002.395871,-00000.438510,-00000.058007,-00000.582752,-00000.004020,-00000.037551,-00000.272035
0000000001472,00002.714305,00002.006420,00002.328730,00003.151852,00002.867470,00002.900649,00002.747787,00003.291246,00002.823786,00002.395548,-00000.438554,-00000.058051,-00000.583003,-00000.004448,-00000.038049,-00000.271754
0000000001473,00002.714973,00002.006350,00002.328996,00003.152299,00002.867183,00002.901218,00002.747680,00003.291418,00002.823904,00002.395505,-00000.438606,-00000.058089,-00000.583167,-00000.004874,-00000.038498,-00000.271491
0000000001474,00002.714839,00002.006281,00002.328915,00003.152626,00002.866996,00002.901046,00002.747696,00003.291245,00002.824003,00002.395593,-00000.438644,-00000.058126,-00000.583381,-00000.005238,-00000.038922,-00000.271251
0000000001475,00002.715045,00002.006221,00002.329504,00003.152644,00002.867115,00002.901168,00002.747242,00003.291392,00002.824104,00002.395556,-00000.438688,-00000.058158,-00000.583521,-00000.005600,-00000.039303,-00000.271027
0000000001476,00002.715294,00002.006163,00002.329798,00003.152922,00002.866956,00002.901384,00002.746893,00003.291608,00002.824188,00002.395631,-00000.438720,-00000.058189,-00000.583703,-00000.005910,-00000.039664,-00000.270461
0000000001477,00002.715106,00002.006112,00002.329937,00003.153300,00002.866694,00002.901125,00002.746869,00003.291369,00002.824274,00002.395237,-00000.438758,-00000.058217,-00000.583821,-00000.006218,-00000.039626,-00000.269907
0000000001478,00002.715318,00002.006062,00002.330550,00003.153537,00002.866558,00002.901309,00002.746572,00003.291553,00002.824346,00002.395301,-00000.438785,-00000.058244,-00000.583976,-00000.006845,-00000.039934,-00000.269787
0000000001479,00002.715521,00002.006019,00002.331031,00003.153133,00002.866698,00002.901089,00002.746552,00003.291713,00002.824418,00002.395328,-00000.438817,-00000.058267,-00000.584077,-00000.007108,-00000.040264,-00000.269316
0000000001480,00002.715702,00002.005977,00002.331553,00003.152971,00002.866946,00002.900882,00002.746662,00003.291507,00002.824480,00002.395382,-00000.438841,-00000.058290,-00000.584209,-00000.007279,-00000.040526,-00000.268852
0000000001481,00002.715512,00002.006302,00002.331599,00003.153353,00002.866702,00002.901058,00002.746644,00003.291280,00002.824542,00002.395042,-00000.438868,-00000.058310,-00000.584295,-00000.007502,-00000.040807,-00000.268451
0000000001482,00002.715303,00002.006266,00002.331681,00003.153579,00002.866550,00002.900882,00002.746738,00003.291105,00002.824594,00002.394726,-00000.438888,-00000.058329,-00000.584408,-00000.007647,-00000.041030,-00000.268418
0000000001483,00002.715141,00002.006181,00002.331721,00003.154266,00002.866342,00002.901031,00002.746723,00003.290912,00002.824647,00002.394799,-00000.438911,-00000.058346,-00000.584481,-00000.007838,-00000.040907,-00000.268439
0000000001484,00002.714963,00002.006150,00002.332153,00003.154096,00002.866575,00002.900882,00002.746803,00003.291125,00002.824691,00002.394893,-00000.438928,-00000.058363,-00000.584214,-00000.007599,-00000.040733,-00000.268049
0000000001485,00002.714825,00002.006441,00002.332550,00003.154318,00002.866762,00002.900646,00002.746790,00003.290961,00002.824736,00002.394955,-00000.438585,-00000.058377,-00000.583913,-00000.007035,-00000.040266,-00000.268067
0000000001486,00002.714674,00002.006414,00002.333280,00003.154173,00002.866960,00002.900519,00002.746495,00003.291143,00002.824411,00002.395035,-00000.438237,-00000.058391,-00000.583686,-00000.006469,-00000.039755,-00000.268460
0000000001487,00002.714194,00002.006662,00002.333618,00003.154362,00002.867119,00002.900318,00002.746848,00003.291366,00002.824449,00002.395088,-00000.437945,-00000.058041,-00000.583067,-00000.005626,-00000.038995,-00000.269201
0000000001488,00002.713702,00002.007002,00002.334240,00003.154239,00002.867288,00002.900210,00002.747322,00003.291158,00002.824535,00002.395156,-00000.437285,-00000.057690,-00000.582511,-00000.004781,-00000.037835,-00000.269898
0000000001489,00002.714019,00002.006850,00002.335253,00003.154037,00002.867423,00002.900039,00002.746896,00003.291347,00002.824205,00002.395564,-00000.436674,-00000.057391,-00000.581622,-00000.003701,-00000.036824,-00000.270529
0000000001490,00002.713963,00002.006777,00002.336145,00003.153932,00002.867567,00002.899946,00002.746937,00003.291170,00002.824278,00002.395622,-00000.435750,-00000.056730,-00000.580785,-00000.002619,-00000.035474,-00000.271486
0000000001491,00002.713870,00002.006647,00002.337370,00003.153760,00002.867682,00002.899801,00002.746938,00003.290969,00002.823997,00002.395606,-00000.434866,-00000.056113,-00000.579665,-00000.001700,-00000.034251,-00000.272385
0000000001492,00002.713823,00002.006585,00002.338493,00003.154034,00002.867441,00002.900085,00002.746973,00003.291181,00002.823697,00002.395656,-00000.433717,-00000.055550,-00000.578590,-00000.000416,-00000.033101,-00000.273200
0000000001493,00002.713743,00002.006111,00002.339173,00003.153162,00002.867539,00002.899961,00002.746973,00003.291010,00002.823457,00002.395642,-00000.432239,-00000.055025,-00000.577637,00000.000730,-00000.032060,-00000.273966
0000000001494,00002.713703,00002.006059,00002.340129,00003.153032,00002.867697,00002.899841,00002.747365,00003.290827,00002.823565,00002.395684,-00000.430898,-00000.054546,-00000.576722,00000.001823,-00000.031081,-00000.274659
0000000001495,00002.713998,00002.005656,00002.341070,00003.153015,00002.867055,00002.900098,00002.747003,00003.291044,00002.823361,00002.395673,-00000.429277,-00000.054099,-00000.575910,00000.002435,-00000.030558,-00000.275674
0000000001496,00002.713964,00002.005248,00002.341884,00003.152542,00002.866827,00002.899632,00002.746974,00003.290889,00002.823089,00002.395709,-00000.427773,-00000.053691,-00000.575131,00000.003003,-00000.030450,-00000.276627
0000000001497,00002.713490,00002.005268,00002.342686,00003.152890,00002.866643,00002.899489,00002.747028,00003.290711,00002.823279,00002.395699,-00000.426030,-00000.053310,-00000.574440,00000.003524,-00000.030730,-00000.277128
0000000001498,00002.713098,00002.004921,00002.343378,00003.152850,00002.866086,00002.899455,00002.747004,00003.290579,00002.823410,00002.395367,-00000.424386,-00000.052963,-00000.573777,00000.004008,-00000.031001,-00000.277576
0000000001499,00002.713057,00002.004212,00002.344424,00003.152784,00002.865566,00002.899696,00002.747050,00003.291153,00002.823208,00002.395359,-00000.422903,-00000.052639,-00000.573189,00000.004451,-00000.031602,-00000.277640
0000000001500,00002.713086,00002.003916,00002.345013,00003.152750,00002.865092,00002.899667,00002.747029,00003.291040,00002.823320,00002.395076,-00000.421504,-00000.052343,-00000.572625,00000.004863,-00000.032196,-00000.277296
0000000001501,00002.713051,00002.003676,00002.345540,00003.152694,00002.864650,00002.899509,00002.747069,00003.290803,00002.823512,00002.394706,-00000.420241,-00000.052067,-00000.572124,00000.004878,-00000.032708,-00000.276988
0000000001502,00002.712713,00002.003424,00002.345679,00003.152664,00002.863884,00002.899485,00002.747051,00003.290707,00002.823607,00002.394465,-00000.419050,-00000.051815,-00000.571643,00000.004865,-00000.033576,-00000.277058
0000000001503,00002.712321,00002.003219,00002.346128,00003.152617,00002.863507,00002.899350,00002.747084,00003.290506,00002.823770,00002.394150,-00000.417975,-00000.051581,-00000.571217,00000.005241,-00000.034012,-00000.276795
0000000001504,00002.712033,00002.003005,00002.346609,00003.152229,00002.862855,00002.899329,00002.747069,00003.290424,00002.823851,00002.393945,-00000.416961,-00000.051366,-00000.570808,00000.005230,-00000.034751,-00000.276855
0000000001505,00002.712062,00002.002468,00002.347354,00003.151463,00002.862534,00002.899215,00002.746735,00003.290615,00002.823627,00002.394040,-00000.416408,-00000.051166,-00000.570808,00000.004824,-00000.035484,-00000.276994
0000000001506,00002.711816,00002.002286,00002.347764,00003.151495,00002.861979,00002.899197,00002.746722,00003.290546,00002.823696,00002.394228,-00000.415908,-00000.050984,-00000.570822,00000.004453,-00000.036114,-00000.277408
0000000001507,00002.711478,00002.001829,00002.348398,00003.150843,00002.861706,00002.898737,00002.746438,00003.290346,00002.823505,00002.394309,-00000.415801,-00000.050814,-00000.570822,00000.004107,-00000.036738,-00000.277889
0000000001508,00002.711270,00002.001673,00002.348746,00003.150508,00002.861233,00002.898722,00002.746064,00003.290287,00002.823564,00002.394106,-00000.416100,-00000.050659,-00000.571197,00000.003428,-00000.037637,-00000.278241
0000000001509,00002.710982,00002.001647,00002.348923,00003.149953,00002.861001,00002.898330,00002.746185,00003.289753,00002.823764,00002.393812,-00000.416734,-00000.050514,-00000.571923,00000.002408,-00000.038531,-00000.278651
0000000001510,00002.711167,00002.001152,00002.349583,00003.149668,00002.860961,00002.897954,00002.745866,00003.289703,00002.823451,00002.394003,-00000.416989,-00000.050381,-00000.572605,00000.001467,-00000.039296,-00000.278588
0000000001511,00002.710922,00002.001129,00002.349734,00003.149558,00002.860401,00002.897983,00002.745606,00003.289612,00002.823622,00002.393752,-00000.417529,-00000.050258,-00000.573223,00000.000599,-00000.040057,-00000.278211
0000000001512,00002.711079,00002.000708,00002.350295,00003.149315,00002.860004,00002.898026,00002.745335,00003.289569,00002.823355,00002.393914,-00000.417746,-00000.049783,-00000.573803,-00000.000203,-00000.040708,-00000.277795
0000000001513,00002.711233,00002.000689,00002.350423,00003.149584,00002.859527,00002.898051,00002.745114,00003.289492,00002.823501,00002.394064,-00000.417843,-00000.049315,-00000.574329,-00000.000941,-00000.041357,-00000.277474
0000000001514,00002.710642,00002.000693,00002.350539,00003.149378,00002.859552,00002.897725,00002.745246,00003.289455,00002.823637,00002.394202,-00000.418390,-00000.048910,-00000.574824,-00000.001624,-00000.041548,-00000.277482
0000000001515,00002.710048,00002.000677,00002.350648,00003.149607,00002.859508,00002.897384,00002.745420,00003.289026,00002.823760,00002.393967,-00000.418836,-00000.048512,-00000.575271,-00000.002253,-00000.041737,-00000.277935
0000000001516,00002.709544,00002.000680,00002.351109,00003.149431,00002.859530,00002.897106,00002.745533,00003.288632,00002.823876,00002.394084,-00000.418939,-00000.048168,-00000.575692,-00000.002471,-00000.041900,-00000.277942
0000000001517,00002.709038,00002.000304,00002.351202,00003.149626,00002.858767,00002.896815,00002.745318,00003.288267,00002.823981,00002.393884,-00000.418955,-00000.047829,-00000.575710,-00000.002643,-00000.042061,-00000.277964
0000000001518,00002.708610,00002.000307,00002.351594,00003.149839,00002.858423,00002.896942,00002.745051,00003.287932,00002.824080,00002.393621,-00000.419043,-00000.047535,-00000.575706,-00000.002466,-00000.041837,-00000.277970
0000000001519,00002.708179,00002.000349,00002.352036,00003.150368,00002.858136,00002.897057,00002.744869,00003.287984,00002.824532,00002.393813,-00000.418694,-00000.047247,-00000.575721,-00000.002250,-00000.041611,-00000.277989
0000000001520,00002.707814,00001.999988,00002.352733,00003.150549,00002.857843,00002.897164,00002.744279,00003.288062,00002.824616,00002.393952,-00000.418406,-00000.046997,-00000.575717,-00000.002099,-00000.041421,-00000.278357
0000000001521,00002.707447,00001.999661,00002.353472,00003.150274,00002.857599,00002.896900,00002.744123,00003.287743,00002.824276,00002.393753,-00000.418109,-00000.047114,-00000.575731,-00000.002278,-00000.041591,-00000.278736
0000000001522,00002.707499,00001.999355,00002.353702,00003.150428,00002.857350,00002.896991,00002.743984,00003.287809,00002.824347,00002.393871,-00000.417864,-00000.046902,-00000.575727,-00000.002513,-00000.041792,-00000.279050
0000000001523,00002.707550,00001.999439,00002.353969,00003.150557,00002.857142,00002.897129,00002.743851,00003.287901,00002.824420,00002.394065,-00000.417611,-00000.046639,-00000.575739,-00000.002665,-00000.041937,-00000.279372
0000000001524,00002.707594,00001.999541,00002.354528,00003.151051,00002.856929,00002.897207,00002.743733,00003.287957,00002.824481,00002.393803,-00000.417402,-00000.046458,-00000.575736,-00000.002865,-00000.041745,-00000.280002
0000000001525,00002.707275,00001.999250,00002.355117,00003.151160,00002.857116,00002.897324,00002.743620,00003.288035,00002.824181,00002.393967,-00000.417550,-00000.046597,-00000.575745,-00000.002994,-00000.041868,-00000.281002
0000000001526,00002.706950,00001.998974,00002.355230,00003.151218,00002.856935,00002.897390,00002.743519,00003.288082,00002.824232,00002.393744,-00000.417735,-00000.046805,-00000.576106,-00000.003527,-00000.042068,-00000.281901
0000000001527,00002.706678,00001.998726,00002.355369,00003.151311,00002.856730,00002.897490,00002.743423,00003.287786,00002.824339,00002.393521,-00000.417861,-00000.046924,-00000.576114,-00000.003638,-00000.042173,-00000.282752
0000000001528,00002.706401,00001.998854,00002.355465,00003.151723,00002.856576,00002.897546,00002.743337,00003.287464,00002.824746,00002.393331,-00000.418018,-00000.047101,-00000.576058,-00000.003728,-00000.042342,-00000.283154
0000000001529,00002.706532,00001.998643,00002.355947,00003.151803,00002.856765,00002.897631,00002.743255,00003.287574,00002.824837,00002.393505,-00000.418125,-00000.047202,-00000.576065,-00000.003822,-00000.042069,-00000.283879
0000000001530,00002.706296,00001.998752,00002.356029,00003.152516,00002.856997,00002.897679,00002.743545,00003.287300,00002.825183,00002.393343,-00000.418259,-00000.047353,-00000.576380,-00000.003899,-00000.041851,-00000.284584
0000000001531,00002.706045,00001.998935,00002.356438,00003.152584,00002.857157,00002.897751,00002.743838,00003.287394,00002.825261,00002.393490,-00000.418713,-00000.047439,-00000.576749,-00000.004342,-00000.041981,-00000.285202
0000000001532,00002.705845,00001.999028,00002.356871,00003.152466,00002.857355,00002.897792,00002.744085,00003.287524,00002.825193,00002.394078,-00000.419190,-00000.047930,-00000.577017,-00000.004771,-00000.042158,-00000.285439
0000000001533,00002.705994,00001.999184,00002.357219,00003.152523,00002.857854,00002.897854,00002.743972,00003.287604,00002.825259,00002.394567,-00000.419576,-00000.048366,-00000.577331,-00000.005148,-00000.042269,-00000.285602
0000000001534,00002.706186,00001.999262,00002.357588,00003.152785,00002.858385,00002.897889,00002.743819,00003.288077,00002.825201,00002.395067,-00000.419983,-00000.048422,-00000.577559,-00000.005875,-00000.042782,-00000.285804
0000000001535,00002.705950,00001.999395,00002.357884,00003.153197,00002.858448,00002.898304,00002.743722,00003.288145,00002.825620,00002.395120,-00000.420311,-00000.048793,-00000.578189,-00000.006559,-00000.043602,-00000.286305
0000000001536,00002.706113,00001.999100,00002.358198,00003.152695,00002.858899,00002.898333,00002.743592,00003.288184,00002.825571,00002.395183,-00000.420657,-00000.049203,-00000.578747,-00000.007541,-00000.044402,-00000.286840
0000000001537,00002.705913,00001.999575,00002.358451,00003.152682,00002.859315,00002.898324,00002.743873,00003.287880,00002.825927,00002.395591,-00000.421300,-00000.049519,-00000.579283,-00000.008486,-00000.045100,-00000.287267
0000000001538,00002.706052,00001.999686,00002.358717,00003.152617,00002.859337,00002.898349,00002.743762,00003.287914,00002.825885,00002.395645,-00000.421594,-00000.049868,-00000.580120,-00000.009685,-00000.046143,-00000.288085
0000000001539,00002.705881,00002.000092,00002.358570,00003.152970,00002.859328,00002.898341,00002.743638,00003.288017,00002.826189,00002.395629,-00000.422141,-00000.050137,-00000.580940,-00000.010852,-00000.046738,-00000.289174
0000000001540,00002.705636,00002.000549,00002.358434,00003.153277,00002.859710,00002.898363,00002.743907,00003.288046,00002.826516,00002.396038,-00000.422392,-00000.050434,-00000.581652,-00000.011873,-00000.047626,-00000.290233
0000000001541,00002.705854,00002.000894,00002.358671,00003.153214,00002.860428,00002.898356,00002.744164,00003.288134,00002.826412,00002.396388,-00000.422495,-00000.050663,-00000.582350,-00000.012866,-00000.048132,-00000.291160
0000000001542,00002.706009,00002.000920,00002.359281,00003.153113,00002.860753,00002.898374,00002.744393,00003.288158,00002.826327,00002.396736,-00000.422708,-00000.050916,-00000.582956,-00000.013735,-00000.048526,-00000.292062
0000000001543,00002.705831,00002.000851,00002.359120,00003.153423,00002.861001,00002.898369,00002.744612,00003.288233,00002.826601,00002.396670,-00000.422796,-00000.051111,-00000.583550,-00000.014581,-00000.048956,-00000.292851
0000000001544,00002.705600,00002.001236,00002.358914,00003.153337,00002.860915,00002.898384,00002.744806,00003.287891,00002.826892,00002.396604,-00000.422977,-00000.051689,-00000.584429,-00000.015321,-00000.049654,-00000.293256
0000000001545,00002.705811,00002.001178,00002.359140,00003.153237,00002.860764,00002.898379,00002.744630,00003.287955,00002.826763,00002.396911,-00000.423052,-00000.051855,-00000.585298,-00000.016041,-00000.050383,-00000.293927
0000000001546,00002.705977,00002.001143,00002.359327,00003.153164,00002.860690,00002.898392,00002.744433,00003.288027,00002.826648,00002.397217,-00000.423207,-00000.051984,-00000.585684,-00000.016670,-00000.050615,-00000.294635
0000000001547,00002.706157,00002.001093,00002.359520,00003.153079,00002.860562,00002.898388,00002.744283,00003.288081,00002.826537,00002.397479,-00000.423270,-00000.052125,-00000.586423,-00000.017646,-00000.051236,-00000.295569
0000000001548,00002.706299,00002.001063,00002.359316,00003.153380,00002.860136,00002.898762,00002.744115,00003.287779,00002.826439,00002.397376,-00000.423402,-00000.052236,-00000.587114,-00000.018545,-00000.052158,-00000.296535
0000000001549,00002.706089,00002.000658,00002.359117,00003.153308,00002.860027,00002.898759,00002.743987,00003.287826,00002.826346,00002.397236,-00000.423456,-00000.052356,-00000.587743,-00000.019376,-00000.052687,-00000.297330
0000000001550,00002.705847,00002.000633,00002.358944,00003.153564,00002.859664,00002.898714,00002.743844,00003.287569,00002.826262,00002.396786,-00000.423205,-00000.052450,-00000.588332,-00000.020141,-00000.053109,-00000.298515
0000000001551,00002.705668,00002.000650,00002.358774,00003.153865,00002.859208,00002.898711,00002.744099,00003.287245,00002.826182,00002.396304,-00000.422888,-00000.052189,-00000.588504,-00000.021211,-00000.053559,-00000.299555
0000000001552,00002.705825,00002.000266,00002.358990,00003.154083,00002.858900,00002.899036,00002.743977,00003.287389,00002.825748,00002.396284,-00000.422675,-00000.051906,-00000.589005,-00000.022588,-00000.054645,-00000.300563
0000000001553,00002.705673,00001.999918,00002.358845,00003.154339,00002.858875,00002.899034,00002.743830,00003.287114,00002.825680,00002.395874,-00000.422043,-00000.051684,-00000.589515,-00000.023499,-00000.055753,-00000.301086
0000000001554,00002.705080,00001.999954,00002.358666,00003.154162,00002.858975,00002.898948,00002.744090,00003.286874,00002.825674,00002.395857,-00000.421498,-00000.051444,-00000.589579,-00000.024308,-00000.056314,-00000.301581
0000000001555,00002.704588,00001.999658,00002.358906,00003.153655,00002.858953,00002.898946,00002.743965,00003.287002,00002.825253,00002.395870,-00000.420960,-00000.051255,-00000.589650,-00000.025084,-00000.057258,-00000.302389
0000000001556,00002.704447,00001.998963,00002.359116,00003.153141,00002.858676,00002.898872,00002.743823,00003.287161,00002.824885,00002.395855,-00000.420133,-00000.051050,-00000.589342,-00000.025410,-00000.058099,-00000.303174
0000000001557,00002.704391,00001.998710,00002.358957,00003.153435,00002.858295,00002.899233,00002.743717,00003.287270,00002.824889,00002.395867,-00000.419312,-00000.050889,-00000.589040,-00000.025707,-00000.058176,-00000.304224
0000000001558,00002.704270,00001.998119,00002.359136,00003.153360,00002.858059,00002.899171,00002.743596,00003.287405,00002.824576,00002.395854,-00000.418609,-00000.050715,-00000.588777,-00000.025985,-00000.058529,-00000.305255
0000000001559,00002.703859,00001.997904,00002.359001,00003.153610,00002.857734,00002.899478,00002.743868,00003.287498,00002.824580,00002.395864,-00000.417910,-00000.050578,-00000.588520,-00000.026238,-00000.059321,-00000.306512
0000000001560,00002.703394,00001.997763,00002.358791,00003.153547,00002.857533,00002.899425,00002.743765,00003.287613,00002.824676,00002.395491,-00000.417311,-00000.050429,-00000.587933,-00000.026112,-00000.059984,-00000.308115
0000000001561,00002.703407,00001.997580,00002.358676,00003.153760,00002.857620,00002.899686,00002.743634,00003.287692,00002.824679,00002.395499,-00000.416353,-00000.050676,-00000.587352,-00000.025964,-00000.060658,-00000.309548
0000000001562,00002.703374,00001.997098,00002.358859,00003.153343,00002.857811,00002.899278,00002.743909,00003.287790,00002.824398,00002.395544,-00000.415480,-00000.050549,-00000.586852,-00000.025857,-00000.060860,-00000.311275
0000000001563,00002.703385,00001.996579,00002.358761,00003.152799,00002.857522,00002.899138,00002.743798,00003.287857,00002.824038,00002.395551,-00000.414302,-00000.050396,-00000.586357,-00000.025731,-00000.061071,-00000.312858
0000000001564,00002.703357,00001.996531,00002.358918,00003.152444,00002.858048,00002.899154,00002.744032,00003.287940,00002.823799,00002.395589,-00000.413559,-00000.050288,-00000.585932,-00000.025640,-00000.061605,-00000.314328
0000000001565,00002.703367,00001.996453,00002.359197,00003.151980,00002.858528,00002.899035,00002.744300,00003.287998,00002.823492,00002.395595,-00000.412919,-00000.050158,-00000.585873,-00000.025896,-00000.062511,-00000.315676
0000000001566,00002.703342,00001.996411,00002.358605,00003.152041,00002.858250,00002.899048,00002.744137,00003.287706,00002.823288,00002.395265,-00000.412287,-00000.050429,-00000.585874,-00000.025818,-00000.063328,-00000.316928
0000000001567,00002.703713,00001.996345,00002.358843,00003.152009,00002.858295,00002.898946,00002.744002,00003.288117,00002.823028,00002.395270,-00000.412104,-00000.050681,-00000.585824,-00000.026036,-00000.064099,-00000.318437
0000000001568,00002.703693,00001.996310,00002.358701,00003.151698,00002.858421,00002.898595,00002.744226,00003.288231,00002.822491,00002.395352,-00000.411929,-00000.050912,-00000.585825,-00000.026332,-00000.064795,-00000.319503
0000000001569,00002.704009,00001.996253,00002.358178,00003.151671,00002.858097,00002.898508,00002.744111,00003.287856,00002.822269,00002.394993,-00000.411774,-00000.051126,-00000.585783,-00000.026518,-00000.065451,-00000.320426
0000000001570,00002.704354,00001.996223,00002.357695,00003.151769,00002.858205,00002.898934,00002.743939,00003.287954,00002.822176,00002.395063,-00000.411624,-00000.051323,-00000.585783,-00000.026770,-00000.066044,-00000.320970
0000000001571,00002.704623,00001.996175,00002.357612,00003.151384,00002.858654,00002.898498,00002.744204,00003.287997,00002.821987,00002.395121,-00000.411492,-00000.051505,-00000.585747,-00000.026928,-00000.066603,-00000.321393
0000000001572,00002.704917,00001.996149,00002.357201,00003.151467,00002.858746,00002.898498,00002.744057,00003.288080,00002.821907,00002.394817,-00000.411728,-00000.051672,-00000.585748,-00000.027143,-00000.067470,-00000.322219
0000000001573,00002.704783,00001.996471,00002.357130,00003.151139,00002.859129,00002.898489,00002.744283,00003.288117,00002.821746,00002.394866,-00000.411615,-00000.051828,-00000.585717,-00000.027277,-00000.067945,-00000.322941
0000000001574,00002.705033,00001.996449,00002.357143,00003.150847,00002.859569,00002.898852,00002.744521,00003.288550,00002.821678,00002.395333,-00000.411816,-00000.051970,-00000.585717,-00000.027823,-00000.068321,-00000.323645
0000000001575,00002.705282,00001.996360,00002.356720,00003.150930,00002.859532,00002.898845,00002.744350,00003.288582,00002.821541,00002.395012,-00000.412083,-00000.052102,-00000.586054,-00000.028300,-00000.069088,-00000.323897
0000000001576,00002.705495,00001.996342,00002.356731,00003.150682,00002.859907,00002.898791,00002.744552,00003.288950,00002.821483,00002.395047,-00000.412254,-00000.052224,-00000.586054,-00000.028765,-00000.069408,-00000.324133
0000000001577,00002.705707,00001.996266,00002.356734,00003.150390,00002.859876,00002.898785,00002.744407,00003.289340,00002.821366,00002.395499,-00000.412481,-00000.052336,-00000.586341,-00000.029171,-00000.070062,-00000.323985
0000000001578,00002.705888,00001.996613,00002.356380,00003.150541,00002.860195,00002.898739,00002.744580,00003.289291,00002.821680,00002.395529,-00000.412626,-00000.052439,-00000.586704,-00000.029567,-00000.070697,-00000.323823
0000000001579,00002.706068,00001.996912,00002.356383,00003.150655,00002.860531,00002.898733,00002.744819,00003.289623,00002.821218,00002.395914,-00000.412820,-00000.052535,-00000.586585,-00000.029550,-00000.070890,-00000.324060
0000000001580,00002.706223,00001.996844,00002.356445,00003.150421,00002.860803,00002.898694,00002.744965,00003.289944,00002.821122,00002.396665,-00000.412944,-00000.052623,-00000.586531,-00000.029524,-00000.070705,-00000.323922
0000000001581,00002.706376,00001.997098,00002.356447,00003.150156,00002.861089,00002.898690,00002.745169,00003.289864,00002.821091,00002.397356,-00000.412746,-00000.052705,-00000.586430,-00000.029509,-00000.070507,-00000.323761
0000000001582,00002.706507,00001.997404,00002.356136,00003.150319,00002.860958,00002.899019,00002.744931,00003.290137,00002.821010,00002.397632,-00000.412851,-00000.052779,-00000.586384,-00000.029487,-00000.070349,-00000.323644
0000000001583,00002.706638,00001.997983,00002.356138,00003.150093,00002.861201,00002.899015,00002.745105,00003.290069,00002.820984,00002.397857,-00000.413045,-00000.052849,-00000.586298,-00000.029475,-00000.070181,-00000.323506
0000000001584,00002.706750,00001.998606,00002.356237,00003.150233,00002.861452,00002.899296,00002.744902,00003.290664,00002.820914,00002.398092,-00000.412772,-00000.052913,-00000.586259,-00000.029093,-00000.070047,-00000.323044
0000000001585,00002.706498,00001.999099,00002.355876,00003.150403,00002.861660,00002.898930,00002.745050,00003.290606,00002.821255,00002.398284,-00000.412575,-00000.052972,-00000.586186,-00000.028720,-00000.069540,-00000.322564
0000000001586,00002.706594,00001.999266,00002.355960,00003.150521,00002.861511,00002.898806,00002.744514,00003.290387,00002.821196,00002.398484,-00000.412342,-00000.053026,-00000.585790,-00000.028032,-00000.068700,-00000.322170
0000000001587,00002.707105,00001.999686,00002.356015,00003.150667,00002.861687,00002.899220,00002.744277,00003.291063,00002.821123,00002.398647,-00000.412174,-00000.053076,-00000.585365,-00000.027351,-00000.067907,-00000.321762
0000000001588,00002.706823,00002.000191,00002.355724,00003.150767,00002.861560,00002.899114,00002.744547,00003.290877,00002.821436,00002.398455,-00000.412339,-00000.053122,-00000.585028,-00000.026766,-00000.067192,-00000.321427
0000000001589,00002.706896,00002.000185,00002.355771,00003.150528,00002.861710,00002.899104,00002.744708,00003.291090,00002.821374,00002.398594,-00000.412558,-00000.053165,-00000.585029,-00000.026187,-00000.066516,-00000.321079
0000000001590,00002.707019,00002.000616,00002.355886,00003.150251,00002.862328,00002.899014,00002.744938,00003.291294,00002.821277,00002.398793,-00000.412699,-00000.053205,-00000.584742,-00000.025688,-00000.065907,-00000.320431
0000000001591,00002.706718,00002.000974,00002.355563,00003.150410,00002.862456,00002.899005,00002.745075,00003.291113,00002.821587,00002.398549,-00000.412523,-00000.053241,-00000.584017,-00000.025195,-00000.065332,-00000.319772
0000000001592,00002.707185,00002.000977,00002.355661,00003.150537,00002.862619,00002.898929,00002.745271,00003.291287,00002.821504,00002.398718,-00000.412280,-00000.052912,-00000.583773,-00000.024771,-00000.064814,-00000.319220
0000000001593,00002.706929,00002.001282,00002.355386,00003.151036,00002.862365,00002.898921,00002.745387,00003.291132,00002.821768,00002.398510,-00000.412493,-00000.052943,-00000.583518,-00000.024351,-00000.064324,-00000.318659
0000000001594,00002.706964,00002.001285,00002.355469,00003.151144,00002.862503,00002.898856,00002.745554,00003.291280,00002.821698,00002.398654,-00000.412649,-00000.053025,-00000.583673,-00000.023990,-00000.063883,-00000.318190
0000000001595,00002.707472,00002.001182,00002.355598,00003.151205,00002.862650,00002.899212,00002.745653,00003.291511,00002.821560,00002.398477,-00000.412830,-00000.053052,-00000.583457,-00000.023632,-00000.063466,-00000.318075
0000000001596,00002.707502,00002.001547,00002.355669,00003.151297,00002.863131,00002.899157,00002.745795,00003.291637,00002.821500,00002.398237,-00000.412962,-00000.053122,-00000.583226,-00000.023325,-00000.063091,-00000.318038
0000000001597,00002.707571,00002.001459,00002.355416,00003.151349,00002.862893,00002.899098,00002.745516,00003.291471,00002.821383,00002.398086,-00000.413117,-00000.053144,-00000.583041,-00000.022658,-00000.062373,-00000.317940
0000000001598,00002.707959,00002.001407,00002.355476,00003.151791,00002.862939,00002.899413,00002.745637,00003.291941,00002.821695,00002.397882,-00000.413230,-00000.053204,-00000.582845,-00000.022396,-00000.062053,-00000.317546
0000000001599,00002.708018,00002.001695,00002.355261,00003.152198,00002.862737,00002.899363,00002.745763,00003.291800,00002.821957,00002.397753,-00000.413361,-00000.053223,-00000.583051,-00000.022191,-00000.062168,-00000.317100
0000000001600,00002.707986,00002.001651,00002.355312,00003.152573,00002.863139,00002.899269,00002.745866,00003.291837,00002.821860,00002.397942,-00000.413457,-00000.053274,-00000.583246,-00000.021968,-00000.061896,-00000.316402
0000000001601,00002.708036,00002.001896,00002.355491,00003.152557,00002.863330,00002.899225,00002.745973,00003.291717,00002.822084,00002.397833,-00000.413932,-00000.053290,-00000.583421,-00000.021793,-00000.061631,-00000.316022
0000000001602,00002.708009,00002.001858,00002.355535,00003.152877,00002.863309,00002.899508,00002.746060,00003.291749,00002.822001,00002.397631,-00000.414377,-00000.053334,-00000.583225,-00000.021604,-00000.061399,-00000.315790
0000000001603,00002.708051,00002.002067,00002.355325,00003.153226,00002.863472,00002.899471,00002.746152,00003.291646,00002.822191,00002.397538,-00000.414418,-00000.053348,-00000.583011,-00000.021092,-00000.060810,-00000.315467
0000000001604,00002.707665,00002.002398,00002.354999,00003.153136,00002.863454,00002.898987,00002.746226,00003.291311,00002.822484,00002.397366,-00000.414434,-00000.053384,-00000.582844,-00000.020568,-00000.060250,-00000.315270
0000000001605,00002.707701,00002.002576,00002.355183,00003.153070,00002.863592,00002.898955,00002.746304,00003.291223,00002.822646,00002.397650,-00000.414469,-00000.053396,-00000.582662,-00000.020133,-00000.059749,-00000.314632
0000000001606,00002.707735,00002.002494,00002.355269,00003.152993,00002.863578,00002.898905,00002.746367,00003.290938,00002.822532,00002.397503,-00000.414482,-00000.053428,-00000.582520,-00000.019686,-00000.059273,-00000.314101
0000000001607,00002.707766,00002.002283,00002.355426,00003.152937,00002.863695,00002.898879,00002.746070,00003.291226,00002.822307,00002.397382,-00000.414875,-00000.053438,-00000.582365,-00000.019316,-00000.058846,-00000.313558
0000000001608,00002.707795,00002.002576,00002.355136,00003.153234,00002.863320,00002.899199,00002.746124,00003.290983,00002.822573,00002.397257,-00000.414886,-00000.053464,-00000.582244,-00000.018936,-00000.058440,-00000.313106
0000000001609,00002.707822,00002.002759,00002.354906,00003.153549,00002.863057,00002.899176,00002.745872,00003.290866,00002.822744,00002.397154,-00000.414858,-00000.053110,-00000.582112,-00000.018620,-00000.057714,-00000.312644
0000000001610,00002.708209,00002.003009,00002.355022,00003.154165,00002.862737,00002.899812,00002.745918,00003.291022,00002.822970,00002.397410,-00000.414867,-00000.053133,-00000.582009,-00000.018297,-00000.057006,-00000.312259
0000000001611,00002.708232,00002.003165,00002.355190,00003.154071,00002.862877,00002.899792,00002.746066,00003.291285,00002.822754,00002.397685,-00000.415206,-00000.053194,-00000.581897,-00000.018028,-00000.056388,-00000.311866
0000000001612,00002.708562,00002.003378,00002.355288,00003.154232,00002.862967,00002.899971,00002.745742,00003.291054,00002.822583,00002.397904,-00000.415214,-00000.052851,-00000.581446,-00000.017390,-00000.055422,-00000.311538
0000000001613,00002.708943,00002.003510,00002.355431,00003.154877,00002.862723,00002.900317,00002.745505,00003.291278,00002.822762,00002.398138,-00000.416228,-00000.053266,-00000.582076,-00000.017887,-00000.056347,-00000.311203
0000000001614,00002.708499,00002.003691,00002.355515,00003.155015,00002.862800,00002.900106,00002.745592,00003.291082,00002.822980,00002.397961,-00000.416598,-00000.053336,-00000.582055,-00000.017706,-00000.056614,-00000.310199
0000000001615,00002.708461,00002.003804,00002.355274,00003.155564,00002.862592,00002.900401,00002.745753,00003.290910,00002.823131,00002.397797,-00000.416373,-00000.052964,-00000.581503,-00000.017041,-00000.055587,-00000.309551
0000000001616,00002.708445,00002.003958,00002.354982,00003.155681,00002.862295,00002.900221,00002.745828,00003.290743,00002.822954,00002.397647,-00000.416687,-00000.053024,-00000.581486,-00000.016887,-00000.055088,-00000.309784
0000000001617,00002.708413,00002.004417,00002.354777,00003.156148,00002.862481,00002.900109,00002.745965,00003.290597,00002.823083,00002.397870,-00000.416858,-00000.053069,-00000.581741,-00000.017047,-00000.054940,-00000.309232
0000000001618,00002.708399,00002.004548,00002.354892,00003.156248,00002.862954,00002.899956,00002.746028,00003.290455,00002.822932,00002.398105,-00000.417126,-00000.052758,-00000.581726,-00000.016916,-00000.054878,-00000.308343
0000000001619,00002.708735,00002.004939,00002.355080,00003.156283,00002.863475,00002.899861,00002.746145,00003.290330,00002.822679,00002.398295,-00000.417635,-00000.052797,-00000.581944,-00000.017051,-00000.055115,-00000.307510
0000000001620,00002.709086,00002.005050,00002.355177,00003.156731,00002.863514,00002.900456,00002.746198,00003.290935,00002.822914,00002.398495,-00000.418226,-00000.053257,-00000.582657,-00000.017666,-00000.055788,-00000.307116
0000000001621,00002.709372,00002.005020,00002.355337,00003.156761,00002.863595,00002.900738,00002.745935,00003.291191,00002.822698,00002.398657,-00000.418296,-00000.053290,-00000.582842,-00000.017418,-00000.055989,-00000.306770
0000000001622,00002.709671,00002.004752,00002.355058,00003.156779,00002.863266,00002.900882,00002.745618,00003.290980,00002.822535,00002.398827,-00000.418436,-00000.053319,-00000.582723,-00000.017215,-00000.055836,-00000.306434
0000000001623,00002.709914,00002.004727,00002.355194,00003.157167,00002.863334,00002.901122,00002.745394,00003.291199,00002.822715,00002.399328,-00000.418495,-00000.053347,-00000.582881,-00000.017005,-00000.055645,-00000.306140
0000000001624,00002.709806,00002.004862,00002.354956,00003.157546,00002.863417,00002.901244,00002.745124,00003.291019,00002.822938,00002.399473,-00000.418978,-00000.053372,-00000.583143,-00000.017195,-00000.056240,-00000.305491
0000000001625,00002.710013,00002.004840,00002.355072,00003.157876,00002.863838,00002.901449,00002.745296,00003.291205,00002.822728,00002.399536,-00000.419391,-00000.053396,-00000.583640,-00000.017379,-00000.056803,-00000.304877
0000000001626,00002.710283,00002.004592,00002.355232,00003.158198,00002.863546,00002.901553,00002.745066,00003.291415,00002.822556,00002.399297,-00000.419802,-00000.053417,-00000.583862,-00000.017178,-00000.056947,-00000.304688
0000000001627,00002.710097,00002.004573,00002.354605,00003.158480,00002.863179,00002.901364,00002.744850,00003.291211,00002.822377,00002.399351,-00000.419791,-00000.053075,-00000.583560,-00000.016608,-00000.056701,-00000.304528
0000000001628,00002.710327,00002.004725,00002.354379,00003.158754,00002.862930,00002.901453,00002.745017,00003.291389,00002.822593,00002.399872,-00000.419778,-00000.052730,-00000.583387,-00000.016437,-00000.056098,-00000.304367
0000000001629,00002.710168,00002.004709,00002.354208,00003.158994,00002.862618,00002.901292,00002.745195,00003.290853,00002.822804,00002.399918,-00000.419768,-00000.052801,-00000.583492,-00000.016678,-00000.056251,-00000.304231
0000000001630,00002.710002,00002.004838,00002.354378,00003.158864,00002.862768,00002.901005,00002.745338,00003.290642,00002.822988,00002.400000,-00000.419757,-00000.052870,-00000.583707,-00000.017258,-00000.056826,-00000.303731
0000000001631,00002.709504,00002.004824,00002.354232,00003.159068,00002.862502,00002.900868,00002.745490,00003.290185,00002.823167,00002.399676,-00000.420112,-00000.052931,-00000.584160,-00000.017826,-00000.057319,-00000.303253
0000000001632,00002.709362,00002.004934,00002.354014,00003.159321,00002.862631,00002.900624,00002.745611,00003.290006,00002.822961,00002.399745,-00000.420465,-00000.052990,-00000.584706,-00000.018320,-00000.058171,-00000.302827
0000000001633,00002.708938,00002.004560,00002.353527,00003.159494,00002.862405,00002.900507,00002.745740,00003.289979,00002.823114,00002.399107,-00000.420405,-00000.053042,-00000.585091,-00000.018440,-00000.058954,-00000.303146
0000000001634,00002.708454,00002.004654,00002.353342,00003.159709,00002.862514,00002.900299,00002.745843,00003.289827,00002.823301,00002.398803,-00000.420342,-00000.053092,-00000.584831,-00000.018135,-00000.058591,-00000.303509
0000000001635,00002.708456,00002.004335,00002.353290,00003.159857,00002.862321,00002.900200,00002.745591,00003.289804,00002.823068,00002.398985,-00000.419928,-00000.052773,-00000.584433,-00000.017875,-00000.058169,-00000.303417
0000000001636,00002.708770,00002.004052,00002.353495,00003.160040,00002.862414,00002.900385,00002.745679,00003.290037,00002.822865,00002.399089,-00000.419875,-00000.052453,-00000.584574,-00000.017978,-00000.058586,-00000.303000
0000000001637,00002.709135,00002.003781,00002.353451,00003.160166,00002.862250,00002.900664,00002.745464,00003.290018,00002.822667,00002.398881,-00000.419885,-00000.052544,-00000.584235,-00000.018119,-00000.058589,-00000.302560
0000000001638,00002.709039,00002.003540,00002.353263,00003.159596,00002.862329,00002.900459,00002.745175,00003.289854,00002.822494,00002.398970,-00000.419840,-00000.052635,-00000.584355,-00000.018207,-00000.058581,-00000.302568
0000000001639,00002.709349,00002.003309,00002.353588,00003.159341,00002.862552,00002.900333,00002.744992,00003.289837,00002.822325,00002.399156,-00000.419849,-00000.052712,-00000.584430,-00000.018327,-00000.058947,-00000.302555
0000000001640,00002.709268,00002.003104,00002.353428,00003.159219,00002.862620,00002.900159,00002.745110,00003.289697,00002.822177,00002.399232,-00000.419810,-00000.052789,-00000.584169,-00000.018402,-00000.059303,-00000.302562
0000000001641,00002.709169,00002.003270,00002.353705,00003.159364,00002.863173,00002.900052,00002.745317,00003.289683,00002.822397,00002.399753,-00000.419817,-00000.052856,-00000.583870,-00000.018142,-00000.059251,-00000.302552
0000000001642,00002.709100,00002.003095,00002.353568,00003.159260,00002.863230,00002.900266,00002.745417,00003.289927,00002.822271,00002.399817,-00000.419785,-00000.052921,-00000.584011,-00000.018205,-00000.059554,-00000.302195
0000000001643,00002.709016,00002.003237,00002.353441,00003.159383,00002.863338,00002.900537,00002.745230,00003.289915,00002.822458,00002.399535,-00000.419791,-00000.052977,-00000.584119,-00000.018346,-00000.060236,-00000.302186
0000000001644,00002.709320,00002.003451,00002.353325,00003.159657,00002.863387,00002.900720,00002.744953,00003.289760,00002.822351,00002.399227,-00000.419763,-00000.053033,-00000.583876,-00000.018038,-00000.060494,-00000.302245
0000000001645,00002.709248,00002.003571,00002.352854,00003.159400,00002.863116,00002.900951,00002.744794,00003.289750,00002.822147,00002.399350,-00000.419768,-00000.053081,-00000.583605,-00000.017795,-00000.060349,-00000.302237
0000000001646,00002.709507,00002.004116,00002.352755,00003.159996,00002.863157,00002.901107,00002.744920,00003.289617,00002.822419,00002.399450,-00000.419382,-00000.052766,-00000.583398,-00000.017532,-00000.059843,-00000.301925
0000000001647,00002.709809,00002.004219,00002.353080,00003.159777,00002.863289,00002.901303,00002.744785,00003.289972,00002.822245,00002.399555,-00000.419386,-00000.052444,-00000.583168,-00000.017326,-00000.059719,-00000.301555
0000000001648,00002.709666,00002.004683,00002.352996,00003.160284,00002.863325,00002.901436,00002.744530,00003.289859,00002.822114,00002.399640,-00000.419420,-00000.052538,-00000.582992,-00000.017465,-00000.060014,-00000.301289
0000000001649,00002.709560,00002.004770,00002.352910,00003.160098,00002.863800,00002.901240,00002.744778,00003.289798,00002.821966,00002.399729,-00000.419424,-00000.052627,-00000.582795,-00000.017652,-00000.060271,-00000.300975
0000000001650,00002.709439,00002.005165,00002.352838,00003.159804,00002.864193,00002.900990,00002.745286,00003.290065,00002.821854,00002.399802,-00000.419453,-00000.052707,-00000.582645,-00000.017770,-00000.060522,-00000.300748
0000000001651,00002.708986,00002.005602,00002.352764,00003.160008,00002.864235,00002.900824,00002.745497,00003.290013,00002.822091,00002.399515,-00000.419456,-00000.052783,-00000.582478,-00000.017566,-00000.060379,-00000.300480
0000000001652,00002.708883,00002.005576,00002.352703,00003.159395,00002.864569,00002.900611,00002.745567,00003.289877,00002.821996,00002.399577,-00000.419481,-00000.052851,-00000.582351,-00000.016942,-00000.060230,-00000.300288
0000000001653,00002.708860,00002.005948,00002.352641,00003.159932,00002.864967,00002.900470,00002.745746,00003.289833,00002.822198,00002.399695,-00000.419483,-00000.052915,-00000.582209,-00000.016768,-00000.059745,-00000.299697
0000000001654,00002.709135,00002.006288,00002.352951,00003.160136,00002.865252,00002.900651,00002.745806,00003.290080,00002.822117,00002.400111,-00000.419504,-00000.052974,-00000.582100,-00000.016599,-00000.059618,-00000.299170
0000000001655,00002.709478,00002.006605,00002.353261,00003.160230,00002.865954,00002.900893,00002.745959,00003.290405,00002.822288,00002.400574,-00000.419507,-00000.053028,-00000.581979,-00000.016452,-00000.059568,-00000.298304
0000000001656,00002.709350,00002.006894,00002.353163,00003.160766,00002.865834,00002.901048,00002.746010,00003.290616,00002.822582,00002.400565,-00000.419887,-00000.053078,-00000.581886,-00000.016308,-00000.059460,-00000.297856
0000000001657,00002.709279,00002.007527,00002.353064,00003.160846,00002.866068,00002.900891,00002.746140,00003.290530,00002.822728,00002.400597,-00000.419889,-00000.052762,-00000.581783,-00000.016182,-00000.059417,-00000.297119
0000000001658,00002.708807,00002.008136,00002.352980,00003.161303,00002.865966,00002.900660,00002.746183,00003.289983,00002.822978,00002.400590,-00000.419850,-00000.052804,-00000.581705,-00000.015697,-00000.058962,-00000.296374
0000000001659,00002.709110,00002.008675,00002.353258,00003.161371,00002.866529,00002.900527,00002.746294,00003.289910,00002.823103,00002.400980,-00000.419852,-00000.052897,-00000.581617,-00000.015590,-00000.058926,-00000.295747
0000000001660,00002.709070,00002.009193,00002.353187,00003.161759,00002.866441,00002.900693,00002.745968,00003.289808,00002.823316,00002.400610,-00000.420182,-00000.052933,-00000.581550,-00000.015539,-00000.058902,-00000.295113
0000000001661,00002.708965,00002.009289,00002.353424,00003.161817,00002.866558,00002.900579,00002.746062,00003.289745,00002.823059,00002.400579,-00000.420546,-00000.053013,-00000.581838,-00000.015448,-00000.059234,-00000.294579
0000000001662,00002.709294,00002.009730,00002.353726,00003.161785,00002.866846,00002.900721,00002.746147,00003.290021,00002.823240,00002.400991,-00000.420827,-00000.053044,-00000.581781,-00000.015405,-00000.059213,-00000.294039
0000000001663,00002.709205,00002.010175,00002.353565,00003.161472,00002.866945,00002.900624,00002.746227,00003.289968,00002.823384,00002.401327,-00000.421137,-00000.053111,-00000.581663,-00000.015328,-00000.058770,-00000.293585
0000000001664,00002.709485,00002.010550,00002.353822,00003.161445,00002.867553,00002.900744,00002.746300,00003.290203,00002.823539,00002.402040,-00000.421013,-00000.053137,-00000.581978,-00000.015291,-00000.058752,-00000.293125
0000000001665,00002.709409,00002.010929,00002.353685,00003.161904,00002.867638,00002.900662,00002.746368,00003.290157,00002.823661,00002.402326,-00000.421277,-00000.053195,-00000.581878,-00000.015225,-00000.058738,-00000.292738
0000000001666,00002.709285,00002.011249,00002.353904,00003.161880,00002.867793,00002.900402,00002.746430,00003.290357,00002.823430,00002.402933,-00000.421534,-00000.053217,-00000.582145,-00000.015557,-00000.058723,-00000.291984
0000000001667,00002.709220,00002.011570,00002.353787,00003.162271,00002.867502,00002.900694,00002.746125,00003.290681,00002.823534,00002.403177,-00000.421759,-00000.053267,-00000.582423,-00000.015864,-00000.059073,-00000.291292
0000000001668,00002.709477,00002.011843,00002.353974,00003.162614,00002.867634,00002.900836,00002.745815,00003.290852,00002.823700,00002.403331,-00000.421978,-00000.053285,-00000.582650,-00000.016146,-00000.059423,-00000.290650
0000000001669,00002.709785,00002.012117,00002.354237,00003.162947,00002.867386,00002.901448,00002.745919,00003.291128,00002.824152,00002.403539,-00000.423258,-00000.053327,-00000.582524,-00000.016044,-00000.059722,-00000.290424
0000000001670,00002.709641,00002.012349,00002.354396,00003.162876,00002.867498,00002.901205,00002.746017,00003.290910,00002.824293,00002.403307,-00000.426347,-00000.052980,-00000.581992,-00000.015922,-00000.060382,-00000.290603
0000000001671,00002.709903,00002.012582,00002.354257,00003.162796,00002.867287,00002.901363,00002.746105,00003.290782,00002.824315,00002.403121,-00000.432152,-00000.052653,-00000.581159,-00000.015835,-00000.061725,-00000.291136
0000000001672,00002.709780,00002.012780,00002.353304,00003.162010,00002.867020,00002.901157,00002.745827,00003.290596,00002.824072,00002.402560,-00000.444215,-00000.052721,-00000.579618,-00000.015731,-00000.064101,-00000.293102
0000000001673,00002.707464,00002.012615,00002.348833,00003.159766,00002.866115,00002.900203,00002.745902,00003.290125,00002.823365,00002.398774,-00000.466934,-00000.054982,-00000.576732,-00000.014932,-00000.068146,-00000.296458
0000000001674,00002.703369,00002.011695,00002.340765,00003.155832,00002.864799,00002.898576,00002.745301,00003.288516,00002.821707,00002.391767,-00000.501872,-00000.059756,-00000.573243,-00000.013392,-00000.072709,-00000.299220
0000000001675,00002.698132,00002.010104,00002.326800,00003.150656,00002.863303,00002.897038,00002.744640,00003.286663,00002.819654,00002.382013,-00000.550599,-00000.068574,-00000.568972,-00000.010897,-00000.075064,-00000.300626
0000000001676,00002.691380,00002.007870,00002.308686,00003.144767,00002.861095,00002.895291,00002.744129,00003.284568,00002.817880,00002.370969,-00000.610817,-00000.079531,-00000.562012,-00000.007047,-00000.073869,-00000.302252
0000000001677,00002.683294,00002.005427,00002.289542,00003.136733,00002.858370,00002.893256,00002.742840,00003.282628,00002.815407,00002.358312,-00000.684224,-00000.091754,-00000.552571,-00000.002747,-00000.070433,-00000.305263
0000000001678,00002.674644,00002.003162,00002.270131,00003.127729,00002.855401,00002.891405,00002.741317,00003.280118,00002.812445,00002.344920,-00000.766688,-00000.105072,-00000.543381,00000.000531,-00000.067239,-00000.308824
0000000001679,00002.665583,00002.001082,00002.251294,00003.117261,00002.853082,00002.889311,00002.739857,00003.277741,00002.805623,00002.331243,-00000.856389,-00000.119106,-00000.534618,00000.003104,-00000.063950,-00000.313201
0000000001680,00002.657132,00001.999154,00002.232592,00003.105969,00002.850555,00002.887735,00002.738197,00003.275605,00002.796209,00002.316576,-00000.953437,-00000.134434,-00000.526431,00000.004806,-00000.061594,-00000.319135
0000000001681,00002.645428,00001.997021,00002.213654,00003.093793,00002.848217,00002.884864,00002.736591,00003.273218,00002.785686,00002.301668,-00001.055920,-00000.149646,-00000.518246,00000.006270,-00000.059882,-00000.326489
0000000001682,00002.633516,00001.995379,00002.194468,00003.080551,00002.846066,00002.881346,00002.735178,00003.270674,00002.775132,00002.285192,-00001.160305,-00000.163784,-00000.509826,00000.008445,-00000.057514,-00000.334443
0000000001683,00002.621376,00001.993200,00002.175806,00003.067646,00002.843713,00002.877450,00002.733449,00003.268280,00002.763996,00002.268510,-00001.264237,-00000.176734,-00000.501407,00000.011142,-00000.052792,-00000.343243
0000000001684,00002.609784,00001.991077,00002.157659,00003.054197,00002.841156,00002.873729,00002.731883,00003.265751,00002.753198,00002.250855,-00001.369788,-00000.189495,-00000.493513,00000.013719,-00000.046059,-00000.352190
0000000001685,00002.598724,00001.989223,00002.140684,00003.041397,00002.838790,00002.870413,00002.730048,00003.262625,00002.742630,00002.233752,-00001.476043,-00000.201607,-00000.487071,00000.016016,-00000.038774,-00000.361496
0000000001686,00002.587405,00001.987053,00002.124147,00003.025957,00002.836977,00002.866883,00002.728352,00003.260109,00002.732348,00002.214369,-00001.584764,-00000.214284,-00000.482165,00000.017484,-00000.030866,-00000.370564
0000000001687,00002.576538,00001.985474,00002.108608,00003.010706,00002.835325,00002.863697,00002.727153,00003.257447,00002.722989,00002.195818,-00001.691544,-00000.227135,-00000.478858,00000.018351,-00000.023939,-00000.379212
0000000001688,00002.566539,00001.983626,00002.094167,00002.996474,00002.833781,00002.860692,00002.725709,00003.255306,00002.713511,00002.178955,-00001.794982,-00000.239379,-00000.476495,00000.019237,-00000.017206,-00000.386569
0000000001689,00002.557651,00001.981919,00002.080576,00002.982766,00002.832013,00002.858342,00002.724325,00003.253403,00002.704455,00002.162799,-00001.895680,-00000.251407,-00000.475131,00000.019975,-00000.010584,-00000.392479
0000000001690,00002.549502,00001.980709,00002.067920,00002.969561,00002.830698,00002.855784,00002.723459,00003.251217,00002.695661,00002.148081,-00001.992806,-00000.263281,-00000.474208,00000.020730,-00000.004490,-00000.396928
0000000001691,00002.542660,00001.979256,00002.056350,00002.956440,00002.829556,00002.853784,00002.722281,00003.249597,00002.686863,00002.134328,-00002.085786,-00000.274609,-00000.473773,00000.021721,00000.001874,-00000.399783
0000000001692,00002.536812,00001.978226,00002.045576,00002.943748,00002.828436,00002.851969,00002.721181,00003.247736,00002.678288,00002.121798,-00002.175725,-00000.285806,-00000.474438,00000.022364,00000.007787,-00000.402119
0000000001693,00002.532076,00001.977715,00002.035726,00002.931127,00002.827464,00002.850629,00002.720541,00003.245994,00002.670436,00002.109727,-00002.263223,-00000.296901,-00000.475519,00000.022482,00000.012479,-00000.404187
0000000001694,00002.527460,00001.977201,00002.026191,00002.917420,00002.826511,00002.849084,00002.719605,00003.244773,00002.662411,00002.098698,-00002.348133,-00000.307521,-00000.476085,00000.023029,00000.017513,-00000.406901
0000000001695,00002.523066,00001.976765,00002.017443,00002.903411,00002.826046,00002.846854,00002.719059,00003.242927,00002.655000,00002.088059,-00002.427336,-00000.316966,-00000.476642,00000.024218,00000.024047,-00000.409750
0000000001696,00002.519136,00001.976328,00002.009689,00002.890654,00002.825598,00002.845176,00002.718625,00003.241525,00002.647443,00002.078307,-00002.500708,-00000.325644,-00000.477487,00000.024684,00000.031960,-00000.412786
0000000001697,00002.516121,00001.975957,00002.002605,00002.878727,00002.824839,00002.843641,00002.717798,00003.240316,00002.640409,00002.069250,-00002.566683,-00000.333685,-00000.479412,00000.023882,00000.039336,-00000.414848
0000000001698,00002.513501,00001.975584,00001.996366,00002.867867,00002.824457,00002.842576,00002.717429,00003.239485,00002.633975,00002.060948,-00002.624428,-00000.341435,-00000.482308,00000.022102,00000.046073,-00000.415619
0000000001699,00002.510934,00001.975269,00001.990335,00002.857714,00002.824174,00002.841632,00002.717087,00003.238456,00002.627987,00002.053238,-00002.675513,-00000.348643,-00000.485761,00000.019605,00000.051989,-00000.415924
0000000001700,00002.508341,00001.974952,00001.984662,00002.848832,00002.823849,00002.840724,00002.716410,00003.237386,00002.622147,00002.046171,-00002.722858,-00000.355241,-00000.488952,00000.017364,00000.057362,-00000.416217
0000000001701,00002.505430,00001.975046,00001.979528,00002.840189,00002.823608,00002.839558,00002.716482,00003.236147,00002.617050,00002.039607,-00002.767072,-00000.361740,-00000.492618,00000.014513,00000.061673,-00000.416476
0000000001702,00002.502497,00001.975502,00001.974698,00002.832627,00002.823331,00002.838423,00002.716631,00003.234511,00002.612441,00002.033228,-00002.807377,-00000.367357,-00000.495697,00000.011880,00000.064432,-00000.416363
0000000001703,00002.499656,00001.975944,00001.969964,00002.825632,00002.822763,00002.837430,00002.716330,00003.232731,00002.608101,00002.027278,-00002.842839,-00000.372163,-00000.498454,00000.009090,00000.066651,-00000.416221
0000000001704,00002.496797,00001.976332,00001.965490,00002.818832,00002.822165,00002.836464,00002.716094,00003.230974,00002.604178,00002.021847,-00002.874248,-00000.376582,-00000.501438,00000.005760,00000.068274,-00000.416125
0000000001705,00002.494741,00001.976347,00001.961823,00002.812514,00002.821319,00002.835619,00002.715838,00003.229822,00002.600121,00002.016781,-00002.902987,-00000.381037,-00000.504511,00000.002659,00000.069075,-00000.416004
0000000001706,00002.492307,00001.976314,00001.958377,00002.806000,00002.820809,00002.834433,00002.715636,00003.228327,00002.596055,00002.011795,-00002.930451,-00000.385162,-00000.508140,-00000.000539,00000.069369,-00000.415922
0000000001707,00002.490557,00001.976326,00001.955255,00002.799896,00002.820089,00002.833351,00002.715055,00003.226983,00002.592239,00002.007120,-00002.956004,-00000.389317,-00000.511844,-00000.003904,00000.069324,-00000.416182
0000000001708,00002.488484,00001.975936,00001.952322,00002.794350,00002.819293,00002.832342,00002.714522,00003.226073,00002.588778,00002.002876,-00002.978658,-00000.393191,-00000.515659,-00000.007352,00000.068849,-00000.416112
0000000001709,00002.486995,00001.975946,00001.949664,00002.789517,00002.818679,00002.831783,00002.714390,00003.225292,00002.585892,00001.998896,-00002.997872,-00000.397454,-00000.519176,-00000.010942,00000.068448,-00000.415970
0000000001710,00002.485593,00001.976339,00001.946804,00002.784796,00002.818364,00002.830924,00002.713935,00003.224154,00002.582945,00001.995283,-00003.014256,-00000.401840,-00000.522786,-00000.014603,00000.068406,-00000.415911
0000000001711,00002.483962,00001.976711,00001.944179,00002.780318,00002.817842,00002.830085,00002.713823,00003.222764,00002.580488,00001.991894,-00003.029887,-00000.406920,-00000.527231,-00000.019110,00000.067340,-00000.416879
0000000001712,00002.482769,00001.977408,00001.941381,00002.776662,00002.817211,00002.829717,00002.713799,00003.221795,00002.578706,00001.988818,-00003.044560,-00000.412105,-00000.531755,-00000.024041,00000.065490,-00000.418279
0000000001713,00002.482106,00001.977725,00001.938784,00002.772125,00002.817129,00002.829366,00002.713340,00003.220974,00002.576614,00001.985934,-00003.057141,-00000.417156,-00000.536264,-00000.028604,00000.064220,-00000.419466
0000000001714,00002.481453,00001.978681,00001.936039,00002.767561,00002.816955,00002.829052,00002.713683,00003.219787,00002.574733,00001.983315,-00003.067093,-00000.421570,-00000.540842,-00000.032801,00000.063008,-00000.421021
0000000001715,00002.481615,00001.980039,00001.933828,00002.763335,00002.816885,00002.828754,00002.713655,00003.219088,00002.573316,00001.980860,-00003.074538,-00000.424781,-00000.545043,-00000.036685,00000.061563,-00000.423120
0000000001716,00002.482873,00001.981216,00001.931491,00002.759087,00002.816374,00002.828486,00002.713221,00003.218440,00002.571715,00001.978631,-00003.078293,-00000.427450,-00000.549303,-00000.040258,00000.060169,-00000.425895
0000000001717,00002.483736,00001.982372,00001.929246,00002.755128,00002.816315,00002.828232,00002.713198,00003.217482,00002.570145,00001.976541,-00003.079190,-00000.429096,-00000.553605,-00000.043565,00000.058939,-00000.429495
0000000001718,00002.485170,00001.983736,00001.927620,00002.751149,00002.816242,00002.828005,00002.713191,00003.216931,00002.568419,00001.974643,-00003.078396,-00000.430642,-00000.557957,-00000.046970,00000.057389,-00000.434034
0000000001719,00002.486630,00001.985809,00001.926071,00002.746326,00002.816554,00002.827788,00002.713171,00003.216478,00002.567083,00001.972863,-00003.076982,-00000.432406,-00000.561982,-00000.050873,00000.056342,-00000.438913
0000000001720,00002.487851,00001.988059,00001.923961,00002.741851,00002.816130,00002.827232,00002.712802,00003.215646,00002.565977,00001.970885,-00003.075581,-00000.433360,-00000.565687,-00000.054497,00000.055748,-00000.443866
0000000001721,00002.489819,00001.990549,00001.922643,00002.737383,00002.816033,00002.826685,00002.712423,00003.215624,00002.564839,00001.969370,-00003.075466,-00000.433773,-00000.568751,-00000.057457,00000.055946,-00000.449471
0000000001722,00002.491584,00001.993190,00001.921210,00002.733572,00002.816035,00002.826574,00002.712109,00003.215641,00002.563898,00001.967686,-00003.076812,-00000.433859,-00000.570454,-00000.059817,00000.057254,-00000.455864
0000000001723,00002.492897,00001.995310,00001.919724,00002.729769,00002.815952,00002.826471,00002.711786,00003.215621,00002.562929,00001.966034,-00003.080342,-00000.433848,-00000.571248,-00000.061611,00000.058873,-00000.462449
0000000001724,00002.494037,00001.996832,00001.918504,00002.726163,00002.815953,00002.826739,00002.711518,00003.215636,00002.562127,00001.964600,-00003.085842,-00000.433921,-00000.571972,-00000.063620,00000.060713,-00000.468980
0000000001725,00002.494792,00001.998274,00001.917603,00002.722925,00002.816246,00002.826652,00002.711606,00003.215620,00002.561303,00001.963193,-00003.092838,-00000.433912,-00000.571923,-00000.065510,00000.062454,-00000.474948
0000000001726,00002.494673,00001.999570,00001.916564,00002.719854,00002.816247,00002.826518,00002.711741,00003.214906,00002.560983,00001.961610,-00003.101510,-00000.433974,-00000.570725,-00000.066857,00000.064745,-00000.480871
0000000001727,00002.494591,00002.000798,00001.915434,00002.717098,00002.816496,00002.826443,00002.711816,00003.214530,00002.560281,00001.959687,-00003.112182,-00000.433966,-00000.568506,-00000.067741,00000.067316,-00000.487403
0000000001728,00002.493401,00002.001176,00001.914912,00002.714122,00002.816497,00002.826329,00002.711931,00003.214648,00002.559647,00001.957976,-00003.126458,-00000.434020,-00000.566035,-00000.068525,00000.069629,-00000.494259
0000000001729,00002.492243,00002.001132,00001.913950,00002.711049,00002.816346,00002.826265,00002.711632,00003.214690,00002.559049,00001.955613,-00003.143525,-00000.434375,-00000.563784,-00000.070003,00000.070366,-00000.500545
0000000001730,00002.491230,00002.001454,00001.913143,00002.708516,00002.816347,00002.826168,00002.711367,00003.214791,00002.558509,00001.953069,-00003.162571,-00000.435146,-00000.561318,-00000.071396,00000.069071,-00000.507470
0000000001731,00002.490607,00002.001417,00001.912324,00002.705900,00002.816219,00002.824300,00002.711113,00003.214827,00002.557637,00001.951420,-00003.183267,-00000.435812,-00000.557950,-00000.072654,00000.067159,-00000.516813
0000000001732,00002.490470,00002.001691,00001.912000,00002.703380,00002.816219,00002.822403,00002.710887,00003.214913,00002.557177,00001.949617,-00003.204923,-00000.437194,-00000.554036,-00000.074203,00000.065330,-00000.528875
0000000001733,00002.490665,00002.002385,00001.911666,00002.700791,00002.816473,00002.820450,00002.710670,00003.214943,00002.556798,00001.948213,-00003.227258,-00000.438849,-00000.550081,-00000.075999,00000.063340,-00000.542996
0000000001734,00002.491275,00002.002981,00001.911390,00002.697920,00002.816836,00002.818835,00002.710478,00003.215016,00002.556406,00001.947041,-00003.250773,-00000.440751,-00000.546024,-00000.078406,00000.061058,-00000.557981
0000000001735,00002.491803,00002.003934,00001.911468,00002.695353,00002.817052,00002.817173,00002.710657,00003.215042,00002.556084,00001.945846,-00003.274866,-00000.442886,-00000.541931,-00000.081387,00000.058275,-00000.572904
0000000001736,00002.491597,00002.004805,00001.911233,00002.692910,00002.817724,00002.815435,00002.711219,00003.214742,00002.556113,00001.944485,-00003.298149,-00000.444868,-00000.537388,-00000.083798,00000.055243,-00000.587838
0000000001737,00002.491684,00002.005253,00001.911300,00002.691087,00002.817908,00002.814020,00002.711371,00003.214764,00002.556201,00001.943105,-00003.319748,-00000.446322,-00000.532816,-00000.085610,00000.052874,-00000.602356
0000000001738,00002.491871,00002.005631,00001.911462,00002.689369,00002.818117,00002.812541,00002.711124,00003.214871,00002.555863,00001.942309,-00003.339932,-00000.447647,-00000.528223,-00000.087300,00000.050657,-00000.616157
0000000001739,00002.491945,00002.006376,00001.911519,00002.687455,00002.818636,00002.811336,00002.711616,00003.214890,00002.555938,00001.941135,-00003.358681,-00000.448522,-00000.523968,-00000.088480,00000.048640,-00000.628879
0000000001740,00002.491741,00002.007061,00001.912020,00002.685993,00002.818815,00002.809714,00002.711768,00003.214981,00002.556013,00001.940094,-00003.376227,-00000.449287,-00000.519333,-00000.089193,00000.046389,-00000.640266
0000000001741,00002.492167,00002.007332,00001.913157,00002.684726,00002.818894,00002.808688,00002.711461,00003.215360,00002.556077,00001.939094,-00003.392551,-00000.450032,-00000.514622,-00000.089472,00000.043947,-00000.650733
0000000001742,00002.492356,00002.007553,00001.913947,00002.683118,00002.819408,00002.807307,00002.711591,00003.215437,00002.556141,00001.938209,-00003.406762,-00000.450683,-00000.509950,-00000.089716,00000.041668,-00000.660789
0000000001743,00002.492719,00002.007784,00001.914914,00002.682040,00002.819476,00002.806434,00002.711693,00003.215397,00002.556195,00001.937357,-00003.420659,-00000.451317,-00000.505577,-00000.089591,00000.040677,-00000.670426
0000000001744,00002.493243,00002.007971,00001.916312,00002.681397,00002.819551,00002.807798,00002.711803,00003.216551,00002.556250,00001.936604,-00003.434933,-00000.452234,-00000.502326,-00000.090162,00000.039100,-00000.680075
0000000001745,00002.493189,00002.008168,00001.917136,00002.680842,00002.819608,00002.808869,00002.711890,00003.217605,00002.556659,00001.935516,-00003.447489,-00000.453137,-00000.499328,-00000.091143,00000.037168,-00000.688278
0000000001746,00002.493635,00002.008327,00001.918326,00002.680294,00002.819672,00002.810030,00002.711984,00003.218951,00002.557068,00001.934874,-00003.457464,-00000.453918,-00000.496561,-00000.091992,00000.035825,-00000.694678
0000000001747,00002.493952,00002.008494,00001.919390,00002.679822,00002.819721,00002.811304,00002.711695,00003.220211,00002.557416,00001.934674,-00003.465251,-00000.454686,-00000.494372,-00000.092465,00000.035269,-00000.700211
0000000001748,00002.493969,00002.008993,00001.920403,00002.679719,00002.820139,00002.811930,00002.712138,00003.220993,00002.558128,00001.934490,-00003.471203,-00000.455351,-00000.492378,-00000.092824,00000.034489,-00000.704934
0000000001749,00002.493875,00002.009498,00001.921308,00002.679679,00002.820180,00002.813015,00002.712254,00003.221340,00002.558787,00001.934320,-00003.476018,-00000.456005,-00000.490878,-00000.093590,00000.033652,-00000.708918
0000000001750,00002.494253,00002.009560,00001.922534,00002.679591,00002.820535,00002.813910,00002.712269,00003.222369,00002.559392,00001.934164,-00003.478908,-00000.456571,-00000.490269,-00000.094622,00000.032263,-00000.711851
0000000001751,00002.494173,00002.009990,00001.923305,00002.679557,00002.820571,00002.814471,00002.712731,00003.223028,00002.559953,00001.933656,-00003.480468,-00000.457128,-00000.489717,-00000.095999,00000.030099,-00000.714154
0000000001752,00002.494495,00002.010043,00001.924348,00002.679483,00002.820510,00002.815233,00002.712743,00003.223904,00002.560469,00001.933523,-00003.480026,-00000.457247,-00000.489199,-00000.097240,00000.028554,-00000.716287
0000000001753,00002.494427,00002.010046,00001.925004,00002.679454,00002.820178,00002.816073,00002.712773,00003.224464,00002.560947,00001.933453,-00003.477362,-00000.457358,-00000.489092,-00000.098775,00000.027800,-00000.718248
0000000001754,00002.494338,00002.010091,00001.925529,00002.679390,00002.820126,00002.816360,00002.712784,00003.224847,00002.561385,00001.933340,-00003.473721,-00000.457459,-00000.489739,-00000.100920,00000.026847,-00000.719702
0000000001755,00002.494280,00002.009731,00001.926814,00002.679366,00002.820206,00002.817075,00002.712810,00003.226050,00002.561792,00001.933644,-00003.468189,-00000.457191,-00000.491099,-00000.103315,00000.024755,-00000.719920
0000000001756,00002.494567,00002.009769,00001.927623,00002.680037,00002.819800,00002.817681,00002.712819,00003.227102,00002.562166,00001.933910,-00003.460010,-00000.456189,-00000.492739,-00000.105867,00000.022855,-00000.719343
0000000001757,00002.494518,00002.009825,00001.929080,00002.681105,00002.819867,00002.818290,00002.713204,00003.227763,00002.562875,00001.934531,-00003.449133,-00000.454872,-00000.494622,-00000.108631,00000.020711,-00000.718441
0000000001758,00002.494762,00002.009858,00001.931583,00002.682402,00002.820247,00002.818443,00002.713574,00003.229021,00002.563555,00001.935484,-00003.436003,-00000.453293,-00000.496743,-00000.111166,00000.018005,-00000.717587
0000000001759,00002.495083,00002.009906,00001.934274,00002.684036,00002.820305,00002.818962,00002.713539,00003.230309,00002.564522,00001.936738,-00003.420938,-00000.451084,-00000.498710,-00000.113520,00000.015092,-00000.716456
0000000001760,00002.495291,00002.010296,00001.936768,00002.685866,00002.820265,00002.819455,00002.713854,00003.231017,00002.565464,00001.937912,-00003.405044,-00000.448289,-00000.500515,-00000.115678,00000.011700,-00000.715729
0000000001761,00002.495564,00002.010700,00001.939421,00002.687620,00002.820677,00002.819534,00002.714550,00003.231751,00002.566649,00001.940068,-00003.388229,-00000.445320,-00000.502189,-00000.117319,00000.007768,-00000.715854
0000000001762,00002.496104,00002.011032,00001.941907,00002.689904,00002.820643,00002.819954,00002.714818,00003.232354,00002.567814,00001.942518,-00003.371433,-00000.442215,-00000.504089,-00000.119156,00000.003430,-00000.716324
0000000001763,00002.496699,00002.011013,00001.944166,00002.692122,00002.820631,00002.820383,00002.714685,00003.232979,00002.568824,00001.944716,-00003.355667,-00000.439325,-00000.505877,-00000.120915,-00000.000280,-00000.716793
0000000001764,00002.496796,00002.011658,00001.946282,00002.694792,00002.820965,00002.820741,00002.715276,00003.233492,00002.570178,00001.946802,-00003.341369,-00000.437044,-00000.507857,-00000.122842,-00000.004336,-00000.717193
0000000001765,00002.497303,00002.012005,00001.948205,00002.697769,00002.821317,00002.821469,00002.715525,00003.234024,00002.571400,00001.948674,-00003.328673,-00000.435309,-00000.509742,-00000.124340,-00000.008582,-00000.717593
0000000001766,00002.497748,00002.012192,00001.950370,00002.700042,00002.821964,00002.821774,00002.715666,00003.234824,00002.572553,00001.950812,-00003.316501,-00000.433368,-00000.511065,-00000.125617,-00000.011673,-00000.718296
0000000001767,00002.497817,00002.012487,00001.952007,00002.702576,00002.821902,00002.822031,00002.715878,00003.235276,00002.573956,00001.952768,-00003.304605,-00000.431528,-00000.511944,-00000.126167,-00000.013836,-00000.719362
0000000001768,00002.497833,00002.012646,00001.953849,00002.705599,00002.822090,00002.822290,00002.716360,00003.235594,00002.575664,00001.954589,-00003.292792,-00000.430238,-00000.512707,-00000.126529,-00000.015379,-00000.720323
0000000001769,00002.498254,00002.012534,00001.955606,00002.708120,00002.822399,00002.822509,00002.716178,00003.236343,00002.576858,00001.956254,-00003.281213,-00000.429397,-00000.513818,-00000.127360,-00000.017221,-00000.721956
0000000001770,00002.498268,00002.012670,00001.956811,00002.711056,00002.822559,00002.823093,00002.716589,00003.236613,00002.578674,00001.957804,-00003.268980,-00000.429025,-00000.515557,-00000.128756,-00000.019622,-00000.723863
0000000001771,00002.498627,00002.013663,00001.957944,00002.714653,00002.823185,00002.823642,00002.717522,00003.236888,00002.580416,00001.960673,-00003.255858,-00000.429035,-00000.517228,-00000.130189,-00000.022642,-00000.726704
0000000001772,00002.499364,00002.014504,00001.958970,00002.717515,00002.824047,00002.824501,00002.717872,00003.237118,00002.582325,00001.963443,-00003.241090,-00000.429443,-00000.518708,-00000.131378,-00000.024686,-00000.731230
0000000001773,00002.500758,00002.016075,00001.960297,00002.720577,00002.826032,00002.825332,00002.719029,00003.237714,00002.584171,00001.966248,-00003.225203,-00000.430540,-00000.520131,-00000.132235,-00000.025442,-00000.736914
0000000001774,00002.502474,00002.017516,00001.961171,00002.723739,00002.827854,00002.826426,00002.719690,00003.237910,00002.586159,00001.968969,-00003.209729,-00000.431976,-00000.522479,-00000.133247,-00000.025369,-00000.743306
0000000001775,00002.507651,00002.018854,00001.961938,00002.731062,00002.830268,00002.827859,00002.720312,00003.238055,00002.588456,00001.973171,-00003.192213,-00000.432910,-00000.526592,-00000.134702,-00000.025650,-00000.748508
0000000001776,00002.525416,00002.024696,00001.964330,00002.756400,00002.836176,00002.833289,00002.722917,00003.239213,00002.595305,00001.991018,-00003.143095,-00000.433173,-00000.538604,-00000.135775,-00000.022616,-00000.762755
0000000001777,00002.536624,00002.028007,00001.966459,00002.773893,00002.839267,00002.837535,00002.724348,00003.240420,00002.599023,00002.002240,-00003.109255,-00000.429710,-00000.546673,-00000.135902,-00000.018890,-00000.765790
0000000001778,00002.546891,00002.030100,00001.968635,00002.789148,00002.841536,00002.841512,00002.725203,00003.241084,00002.601825,00002.012518,-00003.077907,-00000.426761,-00000.555718,-00000.136373,-00000.014630,-00000.765108
0000000001779,00002.551301,00002.031211,00001.969246,00002.795928,00002.842535,00002.843245,00002.725753,00003.241338,00002.603216,00002.017226,-00003.065183,-00000.426169,-00000.559878,-00000.136828,-00000.013109,-00000.764811
0000000001780,00002.560111,00002.033916,00001.969919,00002.808632,00002.845406,00002.846736,00002.726762,00003.241866,00002.605395,00002.026364,-00003.045104,-00000.427012,-00000.566234,-00000.135710,-00000.009346,-00000.767540
0000000001781,00002.563743,00002.035468,00001.969994,00002.814587,00002.846455,00002.848144,00002.727221,00003.241768,00002.606604,00002.030060,-00003.037865,-00000.427958,-00000.568885,-00000.134629,-00000.007136,-00000.769677
0000000001782,00002.569615,00002.037903,00001.969830,00002.823791,00002.848018,00002.850181,00002.728012,00003.241506,00002.608642,00002.036564,-00003.028742,-00000.430349,-00000.574264,-00000.133837,-00000.003536,-00000.774222
0000000001783,00002.574976,00002.039250,00001.969690,00002.831989,00002.849348,00002.852278,00002.728684,00003.241646,00002.610013,00002.042101,-00003.024241,-00000.433110,-00000.578844,-00000.133889,-00000.000833,-00000.777729
0000000001784,00002.579540,00002.040397,00001.968846,00002.838968,00002.850118,00002.853700,00002.729257,00003.241765,00002.611544,00002.046089,-00003.027665,-00000.434735,-00000.583468,-00000.133208,00000.002193,-00000.779988
0000000001785,00002.581517,00002.041130,00001.968659,00002.841589,00002.850848,00002.854118,00002.729503,00003.241555,00002.612212,00002.047489,-00003.031592,-00000.435443,-00000.585843,-00000.133837,00000.002435,-00000.780458
0000000001786,00002.585109,00002.041997,00001.966879,00002.846415,00002.851757,00002.854904,00002.729954,00003.241688,00002.612690,00002.050313,-00003.042267,-00000.438172,-00000.590152,-00000.133889,00000.003162,-00000.779409
0000000001787,00002.588166,00002.042735,00001.962462,00002.849797,00002.852169,00002.855573,00002.729613,00003.242163,00002.612734,00002.051629,-00003.061150,-00000.445212,-00000.594183,-00000.135021,00000.002329,-00000.778516
0000000001788,00002.590768,00002.043364,00001.956525,00002.850500,00002.852519,00002.855417,00002.729322,00003.242568,00002.613135,00002.050209,-00003.084118,-00000.453019,-00000.597977,-00000.137074,-00000.002371,-00000.775217
0000000001789,00002.591906,00002.043877,00001.952404,00002.849823,00002.852604,00002.855737,00002.729571,00003.242344,00002.612623,00002.047487,-00003.099069,-00000.457977,-00000.599335,-00000.137062,-00000.003348,-00000.773705
0000000001790,00002.594316,00002.044336,00001.944335,00002.843266,00002.852889,00002.853743,00002.729286,00003.242359,00002.609775,00002.039065,-00003.139617,-00000.471141,-00000.602726,-00000.137723,-00000.006115,-00000.771121
0000000001791,00002.596367,00002.045452,00001.935288,00002.829340,00002.853495,00002.853496,00002.729407,00003.242735,00002.605899,00002.028630,-00003.189010,-00000.487427,-00000.606701,-00000.138648,-00000.009922,-00000.766744
0000000001792,00002.597510,00002.045723,00001.931265,00002.821952,00002.853959,00002.853677,00002.729619,00003.242930,00002.603959,00002.023413,-00003.215199,-00000.495365,-00000.608413,-00000.138864,-00000.011046,-00000.763373
0000000001793,00002.598723,00002.045907,00001.924162,00002.806479,00002.854043,00002.852714,00002.729327,00003.242859,00002.599497,00002.012403,-00003.266776,-00000.511677,-00000.612631,-00000.141433,-00000.015571,-00000.754343
0000000001794,00002.599236,00002.045814,00001.921031,00002.799171,00002.854087,00002.852745,00002.729234,00003.243381,00002.597722,00002.007738,-00003.288509,-00000.518938,-00000.614726,-00000.142955,-00000.018515,-00000.747689
0000000001795,00002.599830,00002.045984,00001.914724,00002.784909,00002.853427,00002.850107,00002.728636,00003.243242,00002.593825,00001.998696,-00003.324832,-00000.532107,-00000.618368,-00000.146005,-00000.023381,-00000.735187
0000000001796,00002.599972,00002.046493,00001.908993,00002.773493,00002.851050,00002.848224,00002.727765,00003.243124,00002.591232,00001.990273,-00003.349949,-00000.542956,-00000.620743,-00000.149689,-00000.030062,-00000.722368
0000000001797,00002.600086,00002.046674,00001.905891,00002.768501,00002.849464,00002.847346,00002.727344,00003.242964,00002.590074,00001.986553,-00003.358489,-00000.547711,-00000.621418,-00000.151678,-00000.033424,-00000.715970
0000000001798,00002.600554,00002.046354,00001.900747,00002.759888,00002.846951,00002.847688,00002.726665,00003.242887,00002.588040,00001.980298,-00003.369169,-00000.556239,-00000.622614,-00000.155608,-00000.039338,-00000.703469
0000000001799,00002.600951,00002.046082,00001.896005,00002.752193,00002.845175,00002.847979,00002.725724,00003.242459,00002.586670,00001.974974,-00003.375721,-00000.562410,-00000.623269,-00000.159315,-00000.045823,-00000.691012
0000000001800,00002.601266,00002.046001,00001.893928,00002.749085,00002.844016,00002.848342,00002.725129,00003.242602,00002.586273,00001.972474,-00003.376929,-00000.564623,-00000.623356,-00000.160982,-00000.048290,-00000.685861
0000000001801,00002.601920,00002.045418,00001.890201,00002.742633,00002.841225,00002.848536,00002.723328,00003.242941,00002.585529,00001.967950,-00003.377610,-00000.569548,-00000.623175,-00000.163891,-00000.051993,-00000.677112
0000000001802,00002.601389,00002.044922,00001.887027,00002.736778,00002.838849,00002.846887,00002.722158,00003.242505,00002.585259,00001.964099,-00003.379642,-00000.574829,-00000.624110,-00000.167455,-00000.057685,-00000.670389
0000000001803,00002.600574,00002.044137,00001.884326,00002.732520,00002.837189,00002.845483,00002.721161,00003.242496,00002.585028,00001.960458,-00003.379920,-00000.578599,-00000.624905,-00000.170127,-00000.061442,-00000.662488
0000000001804,00002.600242,00002.044183,00001.882754,00002.730704,00002.836246,00002.845163,00002.720533,00003.242314,00002.585141,00001.958618,-00003.381151,-00000.580607,-00000.625636,-00000.171672,-00000.063081,-00000.659171
0000000001805,00002.599235,00002.043871,00001.880325,00002.727349,00002.834248,00002.844741,00002.719778,00003.241971,00002.585291,00001.955429,-00003.386284,-00000.584969,-00000.626930,-00000.174442,-00000.066036,-00000.654753
0000000001806,00002.598014,00002.043605,00001.878257,00002.723767,00002.833272,00002.843657,00002.719136,00003.242405,00002.585419,00001.952351,-00003.392467,-00000.588683,-00000.627306,-00000.176800,-00000.067826,-00000.649903
0000000001807,00002.597081,00002.043659,00001.877467,00002.721783,00002.833024,00002.843293,00002.719023,00003.242577,00002.585821,00001.950813,-00003.396545,-00000.591430,-00000.627847,-00000.178218,-00000.069010,-00000.647551
0000000001808,00002.595093,00002.043062,00001.875824,00002.717577,00002.831504,00002.843875,00002.718492,00003.242558,00002.585144,00001.947334,-00003.406645,-00000.597448,-00000.628087,-00000.181103,-00000.072171,-00000.644135
0000000001809,00002.594023,00002.042823,00001.875361,00002.715327,00002.830700,00002.843599,00002.717760,00003.242725,00002.584895,00001.945432,-00003.412611,-00000.601776,-00000.628208,-00000.182586,-00000.073387,-00000.642677
0000000001810,00002.589587,00002.041625,00001.874032,00002.710630,00002.829164,00002.841959,00002.716692,00003.243047,00002.582905,00001.942027,-00003.424676,-00000.613148,-00000.629482,-00000.185910,-00000.075535,-00000.638535
0000000001811,00002.583271,00002.040242,00001.872900,00002.705180,00002.828219,00002.840199,00002.716146,00003.242957,00002.580485,00001.938040,-00003.440751,-00000.626457,-00000.630567,-00000.189828,-00000.077363,-00000.633557
0000000001812,00002.579754,00002.039475,00001.872531,00002.702447,00002.827910,00002.839088,00002.715870,00003.243087,00002.579005,00001.936074,-00003.450505,-00000.633130,-00000.630836,-00000.191731,-00000.078170,-00000.631317
0000000001813,00002.571998,00002.038411,00001.871259,00002.696401,00002.827151,00002.837030,00002.715808,00003.242629,00002.575714,00001.931158,-00003.474711,-00000.647459,-00000.631357,-00000.195872,-00000.079244,-00000.628138
0000000001814,00002.565395,00002.037143,00001.870177,00002.689076,00002.826505,00002.835278,00002.715756,00003.242239,00002.571824,00001.926248,-00003.502574,-00000.661108,-00000.631075,-00000.199397,-00000.077981,-00000.625795
0000000001815,00002.562471,00002.036537,00001.870109,00002.685979,00002.826455,00002.834472,00002.715566,00003.242453,00002.570306,00001.923753,-00003.515792,-00000.666887,-00000.630978,-00000.200599,-00000.076873,-00000.624194
0000000001816,00002.555471,00002.035185,00001.869197,00002.679842,00002.825187,00002.833100,00002.714824,00003.242089,00002.566495,00001.917404,-00003.540811,-00000.676922,-00000.630752,-00000.201970,-00000.073786,-00000.621349
0000000001817,00002.547698,00002.033671,00001.868422,00002.673529,00002.823019,00002.832295,00002.714193,00003.241780,00002.562887,00001.910186,-00003.566463,-00000.686916,-00000.630560,-00000.203863,-00000.071521,-00000.619653
0000000001818,00002.544654,00002.033065,00001.868066,00002.670537,00002.822502,00002.831745,00002.714136,00003.242010,00002.560916,00001.906986,-00003.577505,-00000.691240,-00000.630093,-00000.204687,-00000.070911,-00000.618888
0000000001819,00002.538853,00002.031504,00001.866733,00002.664881,00002.820371,00002.830778,00002.713244,00003.241349,00002.555598,00001.901317,-00003.596612,-00000.698741,-00000.629636,-00000.207264,-00000.070524,-00000.616106
0000000001820,00002.533914,00002.029812,00001.865961,00002.660067,00002.818919,00002.831044,00002.712485,00003.242238,00002.549983,00001.896853,-00003.611427,-00000.706579,-00000.631424,-00000.212360,-00000.075275,-00000.611561
0000000001821,00002.531850,00002.029008,00001.865423,00002.658440,00002.818265,00002.831301,00002.712545,00003.242081,00002.547880,00001.895081,-00003.616286,-00000.710374,-00000.632407,-00000.215563,-00000.078513,-00000.608429
0000000001822,00002.527226,00002.026962,00001.864120,00002.654584,00002.816764,00002.830038,00002.711890,00003.241410,00002.543050,00001.891545,-00003.623459,-00000.718296,-00000.634871,-00000.222691,-00000.086066,-00000.601398
0000000001823,00002.519663,00002.024131,00001.863374,00002.651664,00002.814760,00002.830052,00002.710606,00003.240839,00002.538938,00001.888171,-00003.624850,-00000.725402,-00000.637694,-00000.231298,-00000.096849,-00000.591422
0000000001824,00002.515008,00002.022689,00001.862707,00002.650761,00002.814076,00002.830075,00002.710357,00003.240403,00002.537623,00001.886293,-00003.621270,-00000.728584,-00000.638919,-00000.235296,-00000.101436,-00000.586052
0000000001825,00002.505996,00002.019768,00001.861082,00002.648047,00002.812109,00002.828994,00002.709302,00003.240344,00002.534681,00001.882975,-00003.605572,-00000.734886,-00000.642229,-00000.243843,-00000.112473,-00000.576544
0000000001826,00002.498324,00002.016919,00001.859337,00002.646098,00002.810797,00002.828074,00002.708766,00003.240294,00002.535079,00001.879062,-00003.584952,-00000.740977,-00000.645772,-00000.251482,-00000.125860,-00000.566998
0000000001827,00002.494565,00002.016009,00001.858524,00002.645214,00002.810003,00002.827856,00002.708364,00003.239894,00002.535256,00001.876782,-00003.575876,-00000.743990,-00000.646055,-00000.253949,-00000.129746,-00000.562803
0000000001828,00002.487867,00002.012993,00001.857522,00002.642236,00002.807554,00002.827468,00002.706879,00003.240274,00002.534842,00001.866171,-00003.566202,-00000.750540,-00000.647578,-00000.259359,-00000.134035,-00000.554938
0000000001829,00002.480714,00002.010788,00001.856668,00002.637524,00002.804743,00002.825687,00002.705978,00003.240597,00002.534853,00001.853873,-00003.567037,-00000.757206,-00000.648149,-00000.263965,-00000.135508,-00000.545703
0000000001830,00002.477562,00002.009999,00001.856180,00002.634685,00002.802995,00002.823417,00002.705359,00003.240956,00002.535016,00001.847541,-00003.568563,-00000.760186,-00000.648189,-00000.265421,-00000.134476,-00000.542715
0000000001831,00002.469039,00002.007151,00001.855526,00002.627105,00002.799774,00002.816434,00002.704684,00003.241903,00002.535001,00001.834023,-00003.574851,-00000.765054,-00000.647218,-00000.268399,-00000.131894,-00000.537112
0000000001832,00002.459607,00002.003638,00001.854606,00002.619201,00002.795580,00002.809763,00002.704109,00003.241984,00002.532449,00001.820338,-00003.584921,-00000.769198,-00000.643489,-00000.269484,-00000.129332,-00000.532704
0000000001833,00002.450852,00002.000285,00001.854549,00002.611747,00002.792373,00002.803721,00002.703620,00003.242416,00002.529913,00001.807962,-00003.596758,-00000.774178,-00000.640314,-00000.270407,-00000.126789,-00000.529677
0000000001834,00002.446321,00001.998417,00001.854124,00002.608622,00002.790322,00002.801276,00002.702803,00003.242271,00002.528628,00001.802074,-00003.600157,-00000.776557,-00000.639144,-00000.271048,-00000.126070,-00000.527234
0000000001835,00002.437002,00001.994752,00001.853776,00002.603104,00002.786808,00002.796859,00002.701782,00003.242660,00002.526660,00001.792777,-00003.604287,-00000.780079,-00000.637341,-00000.272101,-00000.124374,-00000.522118
0000000001836,00002.429069,00001.991632,00001.853479,00002.598406,00002.784180,00002.792736,00002.700914,00003.242628,00002.524985,00001.784862,-00003.607440,-00000.783803,-00000.636532,-00000.274812,-00000.124382,-00000.519940
0000000001837,00002.425682,00001.990028,00001.853535,00002.596335,00002.783208,00002.791406,00002.700678,00003.243099,00002.524044,00001.781903,-00003.605488,-00000.784734,-00000.636673,-00000.276215,-00000.126091,-00000.518984
0000000001838,00002.421245,00001.987974,00001.853274,00002.593369,00002.781478,00002.788457,00002.699973,00003.243002,00002.523121,00001.777420,-00003.591049,-00000.781961,-00000.636326,-00000.278314,-00000.128746,-00000.517272
0000000001839,00002.420394,00001.987077,00001.853320,00002.592400,00002.781126,00002.787890,00002.699907,00003.243559,00002.523851,00001.775801,-00003.579145,-00000.777768,-00000.636962,-00000.279393,-00000.130440,-00000.516145
0000000001840,00002.419647,00001.985824,00001.852729,00002.591833,00002.780794,00002.786915,00002.699680,00003.243393,00002.525496,00001.772588,-00003.548306,-00000.766236,-00000.639112,-00000.282834,-00000.136439,-00000.513041
0000000001841,00002.421550,00001.985845,00001.852225,00002.591714,00002.780148,00002.786810,00002.699487,00003.243253,00002.527985,00001.770215,-00003.509355,-00000.753516,-00000.641667,-00000.285763,-00000.142997,-00000.510399
0000000001842,00002.424984,00001.986589,00001.852159,00002.591612,00002.780324,00002.787084,00002.699685,00003.243496,00002.530830,00001.769283,-00003.471117,-00000.740510,-00000.643843,-00000.288256,-00000.147492,-00000.507787
0000000001843,00002.426500,00001.987260,00001.851993,00002.591533,00002.780752,00002.788116,00002.699888,00003.243588,00002.532072,00001.769085,-00003.452420,-00000.734197,-00000.644187,-00000.289364,-00000.149301,-00000.506286
0000000001844,00002.429924,00001.988519,00001.851599,00002.591821,00002.781563,00002.792549,00002.700752,00003.243418,00002.535034,00001.769047,-00003.416480,-00000.722251,-00000.644174,-00000.290597,-00000.151407,-00000.501020
0000000001845,00002.431793,00001.989830,00001.851383,00002.592540,00002.782307,00002.795011,00002.700978,00003.243516,00002.536710,00001.769212,-00003.400254,-00000.717690,-00000.644222,-00000.291151,-00000.151781,-00000.498498
0000000001846,00002.436244,00001.991796,00001.850717,00002.593404,00002.782888,00002.799145,00002.701317,00003.242994,00002.539345,00001.769881,-00003.370984,-00000.709287,-00000.644929,-00000.291755,-00000.152067,-00000.494390
0000000001847,00002.441121,00001.994194,00001.851238,00002.594139,00002.784108,00002.802300,00002.701968,00003.243638,00002.541589,00001.771176,-00003.347517,-00000.702495,-00000.644443,-00000.291181,-00000.152311,-00000.491256
0000000001848,00002.446361,00001.996236,00001.852407,00002.594765,00002.784783,00002.805350,00002.702160,00003.244187,00002.544587,00001.772641,-00003.327902,-00000.696351,-00000.644391,-00000.292143,-00000.154695,-00000.488951
0000000001849,00002.448504,00001.997649,00001.852990,00002.595183,00002.785600,00002.805827,00002.702568,00003.243923,00002.545905,00001.774403,-00003.318799,-00000.693477,-00000.645095,-00000.293319,-00000.156705,-00000.487742
0000000001850,00002.453735,00001.999540,00001.853899,00002.595654,00002.786416,00002.807264,00002.701945,00003.244429,00002.548262,00001.778290,-00003.303454,-00000.688311,-00000.645672,-00000.295415,-00000.160250,-00000.486322
0000000001851,00002.456017,00002.001160,00001.854250,00002.596477,00002.787554,00002.808558,00002.702826,00003.244379,00002.550038,00001.780014,-00003.297043,-00000.685996,-00000.646325,-00000.296709,-00000.162173,-00000.485681
0000000001852,00002.460130,00002.002529,00001.855697,00002.596393,00002.789531,00002.810314,00002.703253,00003.244818,00002.552143,00001.783430,-00003.286385,-00000.681217,-00000.647808,-00000.299388,-00000.167444,-00000.485293
0000000001853,00002.463632,00002.004057,00001.856566,00002.596684,00002.790851,00002.811083,00002.703617,00003.245191,00002.554660,00001.789966,-00003.280214,-00000.677149,-00000.649433,-00000.301307,-00000.171569,-00000.485326
0000000001854,00002.465205,00002.004575,00001.857135,00002.597003,00002.791220,00002.811466,00002.703600,00003.245176,00002.555615,00001.793393,-00003.278244,-00000.675013,-00000.650514,-00000.302188,-00000.172996,-00000.485903
0000000001855,00002.467227,00002.006162,00001.858152,00002.598292,00002.792289,00002.810976,00002.704275,00003.244770,00002.558705,00001.798085,-00003.274735,-00000.670416,-00000.652462,-00000.304053,-00000.177021,-00000.486933
0000000001856,00002.469311,00002.006787,00001.859019,00002.599026,00002.793199,00002.810921,00002.704487,00003.244788,00002.560972,00001.799902,-00003.273561,-00000.666140,-00000.653758,-00000.304189,-00000.179359,-00000.486722
0000000001857,00002.470377,00002.007046,00001.859769,00002.599500,00002.793801,00002.810801,00002.704777,00003.244765,00002.561787,00001.800378,-00003.273215,-00000.664026,-00000.654140,-00000.303654,-00000.179834,-00000.486804
0000000001858,00002.471992,00002.007177,00001.860032,00002.601505,00002.794123,00002.811136,00002.704914,00003.244783,00002.564684,00001.800766,-00003.271542,-00000.659611,-00000.654824,-00000.302399,-00000.181391,-00000.486975
0000000001859,00002.472958,00002.007047,00001.860385,00002.602252,00002.794271,00002.811198,00002.704766,00003.245178,00002.565579,00001.802565,-00003.270624,-00000.657694,-00000.655128,-00000.301664,-00000.182062,-00000.487424
0000000001860,00002.474189,00002.007540,00001.860919,00002.603848,00002.794523,00002.810747,00002.704905,00003.244409,00002.567913,00001.807344,-00003.268248,-00000.654221,-00000.654939,-00000.299616,-00000.182562,-00000.489316
0000000001861,00002.475238,00002.007960,00001.861374,00002.607021,00002.794738,00002.810364,00002.705023,00003.244117,00002.570987,00001.812138,-00003.262597,-00000.650539,-00000.654778,-00000.298598,-00000.184801,-00000.491290
0000000001862,00002.476130,00002.008318,00001.861762,00002.612262,00002.795284,00002.810400,00002.705486,00003.244594,00002.573968,00001.816219,-00003.247629,-00000.644502,-00000.654641,-00000.297732,-00000.188159,-00000.492245
0000000001863,00002.477063,00002.008467,00001.862269,00002.614755,00002.795309,00002.810716,00002.705641,00003.244932,00002.575285,00001.818400,-00003.235388,-00000.640680,-00000.654951,-00000.297341,-00000.190616,-00000.493046
0000000001864,00002.477684,00002.008749,00001.862524,00002.618846,00002.795407,00002.811425,00002.706013,00003.244926,00002.577626,00001.821187,-00003.204149,-00000.632844,-00000.656603,-00000.296662,-00000.198188,-00000.496280
0000000001865,00002.478572,00002.008882,00001.862681,00002.620884,00002.795836,00002.812218,00002.706579,00003.244984,00002.579028,00001.822234,-00003.188103,-00000.628835,-00000.657529,-00000.296004,-00000.201725,-00000.498251
0000000001866,00002.480057,00002.008740,00001.863237,00002.623701,00002.796219,00002.813067,00002.706811,00003.244969,00002.580812,00001.823725,-00003.158091,-00000.622398,-00000.658071,-00000.294797,-00000.205831,-00000.505064
0000000001867,00002.482047,00002.008256,00001.864073,00002.626098,00002.796182,00002.814152,00002.706646,00003.245683,00002.582332,00001.824995,-00003.132178,-00000.616192,-00000.657444,-00000.293045,-00000.205699,-00000.512315
0000000001868,00002.482885,00002.008071,00001.864016,00002.627508,00002.796149,00002.814905,00002.706781,00003.245945,00002.583386,00001.825747,-00003.121224,-00000.613011,-00000.657174,-00000.292268,-00000.204548,-00000.515702
0000000001869,00002.483728,00002.008050,00001.864374,00002.630428,00002.796122,00002.816080,00002.706983,00003.246150,00002.585611,00001.821999,-00003.105873,-00000.607476,-00000.657044,-00000.290166,-00000.201704,-00000.521734
0000000001870,00002.484084,00002.007668,00001.864315,00002.632913,00002.796099,00002.816355,00002.707155,00003.245963,00002.588594,00001.818446,-00003.094256,-00000.603489,-00000.656207,-00000.288377,-00000.198195,-00000.525055
0000000001871,00002.485112,00002.007344,00001.864628,00002.634667,00002.796443,00002.817314,00002.707301,00003.246528,00002.591133,00001.818687,-00003.083641,-00000.600820,-00000.655858,-00000.285765,-00000.195207,-00000.527882
0000000001872,00002.485417,00002.007567,00001.864655,00002.635921,00002.796429,00002.818007,00002.707394,00003.246463,00002.592254,00001.818171,-00003.078736,-00000.600049,-00000.655656,-00000.284429,-00000.193292,-00000.530078
0000000001873,00002.486247,00002.007257,00001.864554,00002.637953,00002.796361,00002.819084,00002.706779,00003.246591,00002.594248,00001.818816,-00003.069703,-00000.598618,-00000.656114,-00000.282767,-00000.189945,-00000.533609
0000000001874,00002.487096,00002.007141,00001.864450,00002.639553,00002.796676,00002.819861,00002.706860,00003.247111,00002.595497,00001.820370,-00003.064788,-00000.597232,-00000.656395,-00000.282375,-00000.188900,-00000.534245
0000000001875,00002.488765,00002.007984,00001.864380,00002.641770,00002.797296,00002.818848,00002.707413,00003.246780,00002.597372,00001.824316,-00003.053112,-00000.594043,-00000.656743,-00000.281019,-00000.186206,-00000.534980
0000000001876,00002.491274,00002.008701,00001.864683,00002.644383,00002.797825,00002.818348,00002.706795,00003.246861,00002.598969,00001.826949,-00003.042085,-00000.592054,-00000.657040,-00000.280227,-00000.184638,-00000.536694
0000000001877,00002.492214,00002.009166,00001.864643,00002.645937,00002.798080,00002.818541,00002.706937,00003.247136,00002.599866,00001.828277,-00003.035902,-00000.590806,-00000.657844,-00000.280474,-00000.185045,-00000.537452
0000000001878,00002.493848,00002.010070,00001.864545,00002.648656,00002.798492,00002.818813,00002.706753,00003.246801,00002.601455,00001.831046,-00003.023080,-00000.588935,-00000.658702,-00000.280489,-00000.185464,-00000.538073
0000000001879,00002.494513,00002.010839,00001.863735,00002.650971,00002.798480,00002.818318,00002.706596,00003.246154,00002.602807,00001.833041,-00003.011076,-00000.586980,-00000.659796,-00000.280501,-00000.186546,-00000.538602
0000000001880,00002.494807,00002.011208,00001.863742,00002.652346,00002.798674,00002.818450,00002.706692,00003.246059,00002.603404,00001.834329,-00003.004265,-00000.585768,-00000.660910,-00000.281039,-00000.187587,-00000.538484
0000000001881,00002.496055,00002.011808,00001.863778,00002.654112,00002.798635,00002.818372,00002.706182,00003.245885,00002.604104,00001.836561,-00002.987803,-00000.584283,-00000.662401,-00000.282058,-00000.188354,-00000.538226
0000000001882,00002.496754,00002.011956,00001.863808,00002.655252,00002.798964,00002.817944,00002.706473,00003.246099,00002.605062,00001.840276,-00002.970161,-00000.582294,-00000.663307,-00000.283651,-00000.189369,-00000.538006
0000000001883,00002.497314,00002.012218,00001.863875,00002.656364,00002.799125,00002.818223,00002.706978,00003.246077,00002.605463,00001.842079,-00002.961279,-00000.581031,-00000.664380,-00000.284730,-00000.190950,-00000.537166
0000000001884,00002.498189,00002.012306,00001.864616,00002.657533,00002.799744,00002.819267,00002.706788,00003.246989,00002.606219,00001.846787,-00002.942865,-00000.577349,-00000.666080,-00000.286651,-00000.193393,-00000.534927
0000000001885,00002.499297,00002.013106,00001.864521,00002.658890,00002.800271,00002.820519,00002.706989,00003.246676,00002.607589,00001.851521,-00002.924287,-00000.573125,-00000.667165,-00000.288287,-00000.195110,-00000.533384
0000000001886,00002.499894,00002.013270,00001.864808,00002.659986,00002.800675,00002.821929,00002.706702,00003.246832,00002.608198,00001.853965,-00002.916617,-00000.570681,-00000.667689,-00000.289014,-00000.196276,-00000.532543
0000000001887,00002.500386,00002.013564,00001.865411,00002.662067,00002.801427,00002.823874,00002.706553,00003.246906,00002.609273,00001.857994,-00002.903756,-00000.566724,-00000.668172,-00000.290298,-00000.198653,-00000.530266
0000000001888,00002.503343,00002.015265,00001.865561,00002.664202,00002.802066,00002.825529,00002.706789,00003.246968,00002.610551,00001.861424,-00002.890993,-00000.562992,-00000.667132,-00000.289578,-00000.199225,-00000.527964
0000000001889,00002.507675,00002.016713,00001.866051,00002.666744,00002.802611,00002.826939,00002.706627,00003.247384,00002.611276,00001.863981,-00002.877952,-00000.559452,-00000.666246,-00000.288602,-00000.199349,-00000.526005
0000000001890,00002.509333,00002.017697,00001.866272,00002.668487,00002.802817,00002.827621,00002.706724,00003.247209,00002.611982,00001.865097,-00002.871597,-00000.556619,-00000.665658,-00000.287452,-00000.199045,-00000.523452
0000000001891,00002.512411,00002.019509,00001.867383,00002.672932,00002.803612,00002.829082,00002.707660,00003.247226,00002.612494,00001.867833,-00002.857087,-00000.548585,-00000.662814,-00000.283527,-00000.196656,-00000.515634
0000000001892,00002.513831,00002.020702,00001.868222,00002.675615,00002.804141,00002.829831,00002.708077,00003.247368,00002.612728,00001.869045,-00002.848961,-00000.544255,-00000.661022,-00000.280802,-00000.194265,-00000.510868
0000000001893,00002.517692,00002.022793,00001.869042,00002.682628,00002.805103,00002.830963,00002.708449,00003.246999,00002.612766,00001.871194,-00002.832737,-00000.535883,-00000.656691,-00000.274964,-00000.189685,-00000.500204
0000000001894,00002.520057,00002.023708,00001.869804,00002.686870,00002.805176,00002.832473,00002.708409,00003.247254,00002.612939,00001.872146,-00002.823873,-00000.532203,-00000.654559,-00000.272222,-00000.187102,-00000.494365
0000000001895,00002.521704,00002.024936,00001.870103,00002.690775,00002.805559,00002.833741,00002.708766,00003.247048,00002.613162,00001.873024,-00002.815297,-00000.528756,-00000.653004,-00000.269630,-00000.184335,-00000.488950
0000000001896,00002.523718,00002.026078,00001.870389,00002.694386,00002.805984,00002.835389,00002.709095,00003.246902,00002.613309,00001.873834,-00002.807752,-00000.525623,-00000.651552,-00000.266934,-00000.181048,-00000.483979
0000000001897,00002.525482,00002.027123,00001.870644,00002.697710,00002.806310,00002.836469,00002.709398,00003.246727,00002.613499,00001.874581,-00002.801540,-00000.522688,-00000.650229,-00000.264002,-00000.177241,-00000.479732
0000000001898,00002.527197,00002.027732,00001.871250,00002.700784,00002.807034,00002.837872,00002.709678,00003.246965,00002.613261,00001.875271,-00002.795841,-00000.520384,-00000.649355,-00000.261343,-00000.173717,-00000.475863
0000000001899,00002.528699,00002.028622,00001.871467,00002.703977,00002.807674,00002.838791,00002.709936,00003.247179,00002.613786,00001.875907,-00002.790190,-00000.518611,-00000.648954,-00000.258847,-00000.170476,-00000.471885
0000000001900,00002.530521,00002.029141,00001.871983,00002.706594,00002.808291,00002.839985,00002.709812,00003.247381,00002.613583,00001.876494,-00002.784977,-00000.517376,-00000.648573,-00000.256584,-00000.167476,-00000.468228
