0000000014618,00002.722879,00002.479463,00002.198689,00003.177827,00002.680478,00002.678631,00002.712601,00003.232402,00002.868648,00002.618081,-00000.434775,-00000.096676,-00000.569633,-00000.068921,-00000.025656,-00000.058746
0000000014619,00002.722437,00002.479739,00002.198469,00003.178084,00002.680342,00002.678261,00002.712636,00003.231857,00002.868625,00002.617882,-00000.435121,-00000.097151,-00000.570077,-00000.069265,-00000.025542,-00000.058726
0000000014620,00002.722501,00002.479728,00002.198257,00003.178367,00002.679875,00002.678302,00002.712300,00003.231356,00002.868725,00002.617687,-00000.435427,-00000.097538,-00000.570548,-00000.069556,-00000.025831,-00000.059080
0000000014621,00002.721762,00002.479599,00002.197707,00003.178222,00002.679759,00002.678351,00002.712330,00003.231255,00002.868705,00002.617880,-00000.435721,-00000.097942,-00000.570926,-00000.069849,-00000.026097,-00000.059426
0000000014622,00002.722179,00002.479590,00002.197527,00003.178463,00002.679361,00002.678386,00002.712044,00003.231191,00002.868790,00002.617713,-00000.435981,-00000.098271,-00000.571326,-00000.070097,-00000.026344,-00000.059365
0000000014623,00002.721913,00002.479481,00002.197422,00003.178340,00002.678900,00002.678426,00002.712069,00003.230743,00002.868773,00002.617515,-00000.436232,-00000.098615,-00000.571648,-00000.070709,-00000.026570,-00000.059296
0000000014624,00002.721542,00002.479110,00002.197269,00003.177819,00002.678924,00002.678093,00002.711826,00003.230688,00002.868483,00002.617374,-00000.436816,-00000.098896,-00000.572352,-00000.071283,-00000.026780,-00000.059607
0000000014625,00002.722042,00002.479017,00002.197542,00003.177714,00002.679257,00002.678128,00002.711485,00003.231032,00002.868106,00002.617567,-00000.437030,-00000.099188,-00000.572626,-00000.071804,-00000.027335,-00000.059912
0000000014626,00002.721726,00002.479426,00002.197049,00003.177634,00002.678915,00002.677845,00002.711278,00003.230260,00002.868221,00002.617447,-00000.437165,-00000.099427,-00000.572862,-00000.071930,-00000.027514,-00000.060176
0000000014627,00002.721788,00002.479347,00002.197281,00003.177182,00002.678473,00002.677512,00002.710987,00003.230190,00002.867900,00002.617612,-00000.437709,-00000.099676,-00000.573458,-00000.072011,-00000.027624,-00000.060435
0000000014628,00002.721520,00002.479696,00002.197224,00003.176750,00002.678544,00002.676908,00002.711174,00003.229895,00002.867998,00002.617509,-00000.438187,-00000.099880,-00000.574023,-00000.072480,-00000.027776,-00000.060298
0000000014629,00002.721572,00002.479992,00002.197059,00003.176729,00002.678531,00002.676987,00002.711289,00003.229836,00002.868088,00002.617287,-00000.438287,-00000.100454,-00000.574530,-00000.072912,-00000.027870,-00000.060518
0000000014630,00002.721707,00002.479926,00002.197010,00003.176724,00002.678591,00002.677198,00002.711085,00003.229948,00002.868172,00002.617200,-00000.438694,-00000.100628,-00000.575010,-00000.073312,-00000.028362,-00000.060764
0000000014631,00002.721752,00002.480177,00002.197233,00003.176705,00002.678943,00002.677266,00002.711183,00003.229897,00002.868248,00002.617373,-00000.439142,-00000.100754,-00000.575805,-00000.073679,-00000.028805,-00000.060952
0000000014632,00002.722229,00002.480484,00002.197554,00003.176339,00002.679357,00002.677083,00002.711373,00003.229993,00002.867956,00002.618025,-00000.439488,-00000.100902,-00000.576214,-00000.074383,-00000.029224,-00000.061524
0000000014633,00002.722267,00002.481061,00002.197381,00003.176323,00002.679656,00002.676777,00002.711819,00003.229949,00002.868384,00002.618898,-00000.439870,-00000.101009,-00000.576890,-00000.074695,-00000.029601,-00000.061684
0000000014634,00002.722310,00002.481685,00002.197654,00003.176011,00002.680009,00002.676622,00002.712343,00003.229668,00002.868498,00002.619815,-00000.440165,-00000.101135,-00000.577238,-00000.074931,-00000.029957,-00000.061808
0000000014635,00002.722343,00002.482539,00002.197870,00003.175997,00002.680263,00002.676362,00002.712723,00003.229631,00002.868862,00002.620559,-00000.440490,-00000.101589,-00000.577451,-00000.075198,-00000.030278,-00000.062307
0000000014636,00002.722380,00002.483070,00002.197740,00003.176457,00002.680201,00002.676229,00002.712806,00003.229391,00002.869323,00002.621340,-00000.440741,-00000.101696,-00000.577748,-00000.075398,-00000.030945,-00000.062775
0000000014637,00002.722770,00002.483434,00002.198286,00003.176809,00002.680055,00002.676371,00002.712767,00003.229723,00002.869270,00002.621972,-00000.441017,-00000.101720,-00000.577929,-00000.075625,-00000.031580,-00000.063200
0000000014638,00002.722801,00002.483886,00002.198538,00003.176837,00002.680002,00002.676258,00002.712838,00003.229519,00002.869662,00002.622637,-00000.441231,-00000.101811,-00000.578181,-00000.075796,-00000.032148,-00000.063599
0000000014639,00002.722771,00002.484196,00002.198640,00003.177136,00002.679877,00002.676378,00002.713167,00003.229801,00002.869980,00002.623176,-00000.441466,-00000.101832,-00000.578336,-00000.075989,-00000.032689,-00000.063960
0000000014640,00002.722798,00002.484581,00002.198854,00003.177161,00002.680195,00002.676282,00002.713227,00003.229627,00002.870313,00002.623742,-00000.441648,-00000.101909,-00000.578913,-00000.076134,-00000.033172,-00000.063937
0000000014641,00002.723135,00002.484845,00002.198941,00003.177053,00002.680089,00002.676385,00002.712782,00003.229505,00002.870221,00002.624200,-00000.441849,-00000.101927,-00000.579045,-00000.076299,-00000.033633,-00000.063882
0000000014642,00002.723520,00002.484810,00002.199124,00003.177074,00002.679997,00002.676666,00002.712833,00003.230082,00002.870505,00002.624682,-00000.442003,-00000.101993,-00000.579174,-00000.076423,-00000.034407,-00000.064225
0000000014643,00002.723444,00002.484672,00002.199198,00003.176619,00002.680269,00002.676753,00002.712817,00003.230341,00002.870426,00002.624710,-00000.442174,-00000.102008,-00000.579285,-00000.076563,-00000.035162,-00000.064541
0000000014644,00002.723410,00002.484642,00002.198991,00003.175911,00002.680191,00002.676629,00002.712861,00003.230107,00002.869943,00002.624757,-00000.442306,-00000.102064,-00000.579758,-00000.076668,-00000.035821,-00000.064833
0000000014645,00002.723345,00002.484524,00002.198691,00003.175886,00002.680060,00002.676704,00002.712484,00003.229964,00002.869876,00002.624418,-00000.442451,-00000.102076,-00000.579853,-00000.077150,-00000.036464,-00000.065102
0000000014646,00002.722953,00002.484862,00002.198515,00003.176009,00002.679993,00002.676598,00002.712521,00003.229765,00002.869827,00002.623733,-00000.442200,-00000.102124,-00000.579893,-00000.077602,-00000.037025,-00000.065351
0000000014647,00002.722535,00002.484762,00002.198259,00003.175988,00002.679882,00002.676299,00002.712926,00003.229281,00002.869770,00002.623081,-00000.441961,-00000.102135,-00000.579974,-00000.077650,-00000.037572,-00000.065217
0000000014648,00002.722927,00002.484686,00002.198472,00003.175368,00002.680187,00002.676209,00002.712595,00003.229474,00002.869365,00002.622860,-00000.441748,-00000.102176,-00000.580007,-00000.077672,-00000.037687,-00000.065066
0000000014649,00002.722934,00002.484601,00002.198617,00003.174987,00002.680093,00002.675954,00002.712577,00003.229062,00002.869680,00002.622306,-00000.441907,-00000.102185,-00000.580076,-00000.077713,-00000.037790,-00000.064952
0000000014650,00002.722905,00002.484537,00002.198436,00003.174821,00002.679990,00002.675878,00002.712658,00003.228864,00002.869698,00002.621755,-00000.442088,-00000.102219,-00000.580105,-00000.077732,-00000.038250,-00000.065186
0000000014651,00002.723273,00002.484464,00002.198559,00003.174135,00002.680272,00002.675661,00002.712643,00003.228875,00002.869603,00002.621646,-00000.442224,-00000.102227,-00000.580164,-00000.077766,-00000.038701,-00000.065089
0000000014652,00002.723248,00002.484772,00002.198405,00003.173993,00002.680185,00002.675959,00002.712712,00003.228707,00002.869981,00002.621540,-00000.442378,-00000.102257,-00000.580188,-00000.077782,-00000.039093,-00000.065288
0000000014653,00002.723200,00002.484347,00002.198510,00003.173409,00002.680425,00002.676137,00002.712699,00003.228717,00002.869900,00002.621447,-00000.442494,-00000.102263,-00000.580238,-00000.077449,-00000.039476,-00000.065568
0000000014654,00002.723178,00002.484610,00002.198741,00003.173289,00002.681077,00002.676390,00002.713120,00003.229299,00002.869859,00002.621357,-00000.442625,-00000.102288,-00000.580259,-00000.077100,-00000.039447,-00000.065375
0000000014655,00002.722774,00002.484611,00002.198468,00003.172791,00002.681281,00002.676179,00002.713109,00003.228944,00002.869791,00002.620914,-00000.442723,-00000.102294,-00000.580301,-00000.076816,-00000.039411,-00000.065251
0000000014656,00002.722756,00002.484109,00002.198665,00003.172326,00002.681473,00002.676395,00002.713105,00003.229077,00002.869393,00002.620838,-00000.442835,-00000.102315,-00000.580319,-00000.076519,-00000.039023,-00000.065086
0000000014657,00002.722774,00002.483747,00002.198795,00003.171902,00002.681647,00002.676215,00002.713095,00003.229138,00002.868972,00002.620824,-00000.442918,-00000.101957,-00000.579993,-00000.076277,-00000.038629,-00000.064981
0000000014658,00002.722759,00002.483319,00002.198963,00003.171506,00002.681810,00002.676399,00002.713092,00003.229251,00002.868996,00002.620759,-00000.443014,-00000.101976,-00000.579645,-00000.076024,-00000.038299,-00000.065203
0000000014659,00002.722412,00002.483374,00002.198711,00003.171146,00002.681233,00002.676246,00002.712721,00003.228941,00002.869000,00002.620022,-00000.443085,-00000.102034,-00000.579367,-00000.075819,-00000.037964,-00000.065476
0000000014660,00002.722399,00002.483373,00002.198491,00003.171171,00002.680646,00002.676402,00002.712718,00003.228674,00002.869021,00002.619603,-00000.443166,-00000.102049,-00000.579434,-00000.075966,-00000.037683,-00000.065666
0000000014661,00002.722466,00002.482694,00002.198639,00003.171227,00002.680517,00002.676272,00002.712402,00003.228772,00002.868661,00002.619701,-00000.443589,-00000.102099,-00000.579560,-00000.076154,-00000.037761,-00000.065898
0000000014662,00002.722455,00002.482693,00002.198814,00003.170886,00002.680743,00002.676042,00002.712400,00003.228908,00002.868316,00002.619708,-00000.444021,-00000.102112,-00000.579616,-00000.076279,-00000.037885,-00000.066060
0000000014663,00002.722513,00002.482478,00002.198941,00003.170934,00002.680634,00002.675931,00002.712131,00003.228992,00002.868010,00002.620154,-00000.444381,-00000.102154,-00000.579724,-00000.076439,-00000.037951,-00000.066257
0000000014664,00002.721777,00002.482114,00002.198364,00003.171006,00002.680101,00002.675010,00002.711766,00003.228382,00002.867717,00002.619797,-00000.444386,-00000.102165,-00000.579772,-00000.076546,-00000.037693,-00000.066395
0000000014665,00002.721463,00002.482294,00002.198109,00003.171047,00002.680008,00002.674553,00002.711900,00003.228090,00002.867819,00002.619451,-00000.444330,-00000.102201,-00000.579501,-00000.076682,-00000.037386,-00000.066563
0000000014666,00002.721563,00002.482347,00002.197981,00003.171834,00002.679916,00002.674495,00002.711952,00003.228296,00002.867932,00002.619147,-00000.444334,-00000.101848,-00000.579179,-00000.076410,-00000.037530,-00000.067043
0000000014667,00002.721296,00002.482137,00002.197764,00003.171869,00002.680200,00002.674105,00002.712066,00003.228048,00002.867656,00002.619579,-00000.444287,-00000.101515,-00000.578948,-00000.076163,-00000.037995,-00000.067549
0000000014668,00002.721381,00002.482183,00002.198018,00003.172176,00002.680485,00002.674056,00002.712111,00003.228224,00002.867752,00002.620408,-00000.444290,-00000.101215,-00000.578674,-00000.075932,-00000.038480,-00000.067957
0000000014669,00002.721516,00002.482004,00002.198196,00003.172568,00002.680726,00002.674087,00002.711845,00003.228375,00002.867517,00002.621138,-00000.444612,-00000.100932,-00000.578478,-00000.076084,-00000.038875,-00000.068388
0000000014670,00002.721589,00002.481680,00002.198412,00003.172830,00002.680606,00002.673682,00002.711520,00003.228162,00002.866873,00002.621844,-00000.444978,-00000.100676,-00000.578245,-00000.075887,-00000.039288,-00000.068373
0000000014671,00002.721704,00002.481890,00002.198563,00003.173164,00002.680812,00002.673709,00002.711657,00003.228291,00002.867036,00002.622828,-00000.445615,-00000.100435,-00000.578077,-00000.075654,-00000.039262,-00000.068377
0000000014672,00002.721765,00002.481614,00002.198747,00003.173387,00002.681073,00002.674089,00002.711743,00003.228835,00002.867214,00002.623792,-00000.446289,-00000.100217,-00000.577879,-00000.075487,-00000.039250,-00000.068364
0000000014673,00002.722226,00002.481431,00002.198876,00003.173671,00002.681247,00002.674112,00002.711496,00003.229308,00002.866990,00002.624630,-00000.446469,-00000.099649,-00000.577374,-00000.075288,-00000.039228,-00000.068730
0000000014674,00002.721916,00002.481559,00002.198670,00003.173860,00002.680744,00002.673710,00002.711207,00003.229045,00002.867141,00002.624362,-00000.446680,-00000.099464,-00000.576842,-00000.075146,-00000.038856,-00000.068719
0000000014675,00002.721582,00002.481765,00002.198780,00003.174102,00002.680530,00002.673730,00002.711360,00003.228722,00002.867313,00002.623625,-00000.446833,-00000.098980,-00000.576412,-00000.074977,-00000.038474,-00000.069031
0000000014676,00002.721681,00002.481874,00002.198967,00003.174264,00002.680464,00002.673751,00002.711113,00003.228861,00002.867442,00002.623759,-00000.446650,-00000.098822,-00000.576322,-00000.074855,-00000.038520,-00000.069385
0000000014677,00002.721760,00002.482050,00002.199423,00003.174107,00002.680644,00002.673767,00002.710881,00003.228949,00002.867225,00002.624220,-00000.446417,-00000.098411,-00000.575956,-00000.074349,-00000.038558,-00000.069650
0000000014678,00002.721481,00002.482143,00002.199583,00003.174244,00002.680951,00002.673785,00002.711034,00003.228705,00002.867335,00002.624697,-00000.446261,-00000.098276,-00000.575516,-00000.074245,-00000.038234,-00000.069588
0000000014679,00002.721549,00002.481930,00002.199608,00003.174474,00002.680742,00002.673799,00002.710836,00003.228779,00002.867151,00002.625089,-00000.446063,-00000.098289,-00000.575567,-00000.074177,-00000.038266,-00000.069451
0000000014680,00002.721674,00002.482009,00002.199744,00003.174591,00002.681003,00002.673814,00002.710966,00003.228934,00002.866881,00002.625858,-00000.445931,-00000.098174,-00000.575193,-00000.074089,-00000.038353,-00000.069036
0000000014681,00002.721731,00002.482190,00002.199766,00003.174786,00002.681188,00002.673826,00002.711523,00003.228635,00002.867450,00002.626555,-00000.445399,-00000.098185,-00000.574874,-00000.074031,-00000.038381,-00000.068556
0000000014682,00002.722201,00002.482257,00002.199881,00003.175248,00002.681047,00002.674202,00002.711634,00003.228767,00002.867583,00002.627210,-00000.445286,-00000.098088,-00000.574556,-00000.073593,-00000.038455,-00000.068203
0000000014683,00002.722250,00002.482049,00002.199537,00003.175414,00002.680479,00002.674212,00002.711383,00003.228149,00002.867705,00002.627077,-00000.445197,-00000.098097,-00000.574284,-00000.073180,-00000.038115,-00000.067795
0000000014684,00002.722286,00002.481380,00002.199635,00003.175083,00002.680360,00002.674169,00002.711114,00003.228261,00002.867455,00002.627272,-00000.444738,-00000.098014,-00000.574013,-00000.072808,-00000.038178,-00000.067494
0000000014685,00002.722328,00002.481203,00002.199705,00003.174861,00002.680601,00002.674178,00002.711263,00003.228461,00002.867559,00002.627521,-00000.444661,-00000.098021,-00000.573781,-00000.072819,-00000.038252,-00000.067146
0000000014686,00002.722359,00002.481360,00002.199426,00003.175304,00002.680500,00002.674504,00002.711035,00003.228557,00002.867709,00002.627324,-00000.444271,-00000.097951,-00000.573188,-00000.072502,-00000.038306,-00000.066890
0000000014687,00002.722395,00002.481209,00002.199485,00003.175116,00002.680706,00002.674149,00002.711161,00003.228364,00002.867797,00002.627537,-00000.443843,-00000.097957,-00000.572991,-00000.072149,-00000.038006,-00000.066594
0000000014688,00002.722059,00002.480979,00002.199248,00003.174767,00002.680619,00002.673701,00002.711329,00003.227720,00002.867563,00002.627006,-00000.443510,-00000.097897,-00000.572848,-00000.071879,-00000.037689,-00000.066376
0000000014689,00002.722089,00002.480851,00002.198936,00003.174970,00002.680068,00002.673761,00002.711075,00003.227556,00002.867275,00002.626099,-00000.443146,-00000.097903,-00000.572681,-00000.071579,-00000.037071,-00000.066124
0000000014690,00002.722166,00002.480655,00002.199096,00003.174673,00002.680357,00002.673380,00002.711218,00003.227370,00002.867075,00002.625647,-00000.442863,-00000.097852,-00000.572559,-00000.071349,-00000.036801,-00000.065939
0000000014691,00002.722191,00002.480183,00002.199193,00003.174483,00002.680252,00002.673431,00002.711001,00003.227593,00002.866830,00002.625238,-00000.442553,-00000.097856,-00000.572779,-00000.071093,-00000.036637,-00000.065724
0000000014692,00002.721894,00002.480017,00002.199330,00003.174230,00002.680498,00002.673469,00002.711123,00003.227435,00002.867023,00002.624853,-00000.442312,-00000.097813,-00000.572676,-00000.070898,-00000.036408,-00000.065566
0000000014693,00002.721553,00002.480340,00002.199050,00003.174068,00002.680408,00002.673150,00002.711301,00003.226900,00002.867177,00002.624142,-00000.442411,-00000.097817,-00000.572501,-00000.070680,-00000.036269,-00000.065384
0000000014694,00002.721662,00002.479836,00002.199166,00003.173853,00002.680254,00002.673183,00002.711042,00003.226765,00002.866978,00002.623814,-00000.442569,-00000.097780,-00000.572776,-00000.070513,-00000.036073,-00000.065249
0000000014695,00002.721372,00002.479748,00002.198927,00003.173352,00002.680541,00002.672911,00002.711193,00003.226672,00002.866747,00002.623572,-00000.442290,-00000.097783,-00000.572989,-00000.070328,-00000.035955,-00000.065094
0000000014696,00002.721828,00002.479682,00002.199026,00003.173169,00002.680410,00002.672939,00002.710973,00003.226920,00002.866577,00002.623293,-00000.442061,-00000.097752,-00000.572860,-00000.070186,-00000.035788,-00000.064979
0000000014697,00002.722307,00002.479608,00002.199186,00003.173105,00002.680291,00002.673070,00002.710739,00003.226841,00002.866018,00002.622723,-00000.441824,-00000.097755,-00000.572679,-00000.070029,-00000.035687,-00000.064847
0000000014698,00002.721969,00002.479551,00002.198908,00003.172950,00002.680543,00002.672731,00002.711277,00003.226690,00002.866236,00002.622123,-00000.441630,-00000.097728,-00000.572932,-00000.069908,-00000.035545,-00000.064749
0000000014699,00002.721288,00002.479488,00002.198681,00003.172896,00002.680078,00002.672480,00002.711078,00003.226259,00002.866122,00002.621276,-00000.441428,-00000.097730,-00000.572778,-00000.069773,-00000.035460,-00000.064637
0000000014700,00002.721364,00002.479076,00002.198807,00003.172763,00002.679930,00002.672192,00002.710810,00003.226130,00002.865583,00002.620765,-00000.441262,-00000.097707,-00000.572631,-00000.069671,-00000.035339,-00000.064554
0000000014701,00002.721510,00002.478660,00002.198976,00003.173080,00002.679897,00002.672341,00002.710641,00003.226127,00002.865486,00002.620406,-00000.441090,-00000.097709,-00000.572499,-00000.069556,-00000.035266,-00000.064458
0000000014702,00002.721574,00002.478310,00002.199083,00003.172967,00002.679771,00002.672095,00002.710413,00003.226017,00002.865027,00002.619971,-00000.440949,-00000.097690,-00000.572374,-00000.069469,-00000.035163,-00000.064387
0000000014703,00002.721698,00002.477955,00002.199228,00003.172874,00002.679743,00002.671859,00002.710632,00003.225651,00002.864945,00002.619666,-00000.440803,-00000.097329,-00000.572262,-00000.069372,-00000.035464,-00000.064306
0000000014704,00002.721390,00002.477657,00002.198956,00003.172415,00002.679636,00002.671287,00002.710438,00003.225195,00002.864554,00002.619296,-00000.440320,-00000.096950,-00000.571793,-00000.069297,-00000.035739,-00000.064245
0000000014705,00002.720770,00002.477718,00002.198716,00003.172698,00002.679612,00002.671086,00002.710624,00003.224884,00002.864846,00002.619035,-00000.439833,-00000.096642,-00000.571335,-00000.068851,-00000.035995,-00000.064176
0000000014706,00002.720871,00002.477827,00002.198485,00003.173033,00002.679158,00002.671325,00002.710458,00003.224858,00002.864876,00002.618358,-00000.439421,-00000.096319,-00000.570935,-00000.068425,-00000.036229,-00000.064125
0000000014707,00002.720706,00002.478242,00002.198281,00003.173274,00002.679138,00002.671154,00002.710617,00003.224593,00002.865125,00002.617773,-00000.439007,-00000.096058,-00000.570545,-00000.068046,-00000.036084,-00000.064066
0000000014708,00002.720429,00002.477972,00002.198084,00003.173197,00002.679114,00002.670632,00002.710476,00003.224208,00002.865151,00002.617559,-00000.438657,-00000.095783,-00000.570205,-00000.067683,-00000.035921,-00000.064022
0000000014709,00002.720288,00002.477962,00002.197910,00003.173402,00002.679097,00002.670486,00002.710611,00003.223983,00002.865363,00002.617062,-00000.438303,-00000.095560,-00000.569873,-00000.067360,-00000.035798,-00000.063972
0000000014710,00002.720052,00002.478095,00002.197743,00003.173699,00002.679076,00002.670404,00002.710854,00003.223655,00002.865748,00002.616879,-00000.438006,-00000.095326,-00000.569584,-00000.066688,-00000.035659,-00000.063935
0000000014711,00002.720295,00002.478087,00002.197595,00003.174236,00002.679062,00002.670643,00002.710606,00003.223826,00002.865565,00002.616819,-00000.437705,-00000.095136,-00000.569301,-00000.066413,-00000.035554,-00000.063892
0000000014712,00002.720095,00002.478200,00002.197452,00003.174126,00002.679044,00002.670573,00002.710450,00003.223547,00002.865167,00002.616663,-00000.437451,-00000.094574,-00000.568692,-00000.066204,-00000.035435,-00000.063860
0000000014713,00002.719576,00002.478193,00002.197326,00003.173858,00002.679032,00002.670051,00002.710602,00003.223330,00002.865012,00002.616612,-00000.437195,-00000.094413,-00000.568088,-00000.065608,-00000.035346,-00000.063824
0000000014714,00002.719405,00002.478652,00002.197204,00003.174490,00002.679017,00002.670355,00002.710832,00003.223093,00002.865398,00002.616480,-00000.436979,-00000.093934,-00000.567570,-00000.065067,-00000.035245,-00000.063797
0000000014715,00002.719689,00002.478283,00002.197460,00003.174625,00002.679369,00002.670273,00002.710961,00003.223270,00002.864904,00002.616436,-00000.436762,-00000.093797,-00000.567419,-00000.064559,-00000.034806,-00000.063766
0000000014716,00002.719907,00002.477949,00002.197719,00003.174437,00002.679719,00002.670531,00002.710794,00003.223431,00002.864870,00002.616686,-00000.436941,-00000.093753,-00000.567340,-00000.064098,-00000.034358,-00000.063380
0000000014717,00002.719786,00002.478360,00002.197937,00003.174915,00002.679657,00002.670825,00002.710904,00003.223219,00002.865174,00002.617011,-00000.437118,-00000.093636,-00000.567212,-00000.063666,-00000.033984,-00000.062991
0000000014718,00002.719608,00002.478438,00002.197795,00003.175480,00002.679229,00002.670682,00002.711125,00003.222631,00002.865508,00002.616862,-00000.437270,-00000.093235,-00000.566782,-00000.063637,-00000.033602,-00000.063025
0000000014719,00002.719868,00002.478426,00002.197980,00003.175524,00002.678813,00002.670931,00002.711219,00003.222813,00002.865404,00002.616776,-00000.437058,-00000.093135,-00000.566310,-00000.063269,-00000.033284,-00000.062694
0000000014720,00002.720079,00002.478129,00002.198222,00003.175643,00002.678812,00002.671172,00002.711044,00003.223038,00002.865326,00002.616648,-00000.437188,-00000.093157,-00000.565944,-00000.062881,-00000.032959,-00000.062360
0000000014721,00002.719938,00002.478119,00002.198017,00003.175680,00002.678820,00002.671022,00002.711123,00003.222468,00002.865238,00002.616213,-00000.437371,-00000.093072,-00000.565542,-00000.062568,-00000.032326,-00000.062078
0000000014722,00002.720117,00002.477866,00002.198223,00003.175781,00002.678819,00002.671227,00002.710975,00003.222659,00002.865171,00002.616467,-00000.437481,-00000.093091,-00000.565230,-00000.062238,-00000.031323,-00000.061794
0000000014723,00002.720360,00002.477857,00002.198411,00003.175813,00002.679189,00002.671099,00002.711042,00003.222899,00002.865096,00002.616821,-00000.437636,-00000.093019,-00000.564888,-00000.061971,-00000.030784,-00000.061554
0000000014724,00002.720150,00002.478005,00002.198224,00003.175536,00002.679188,00002.670911,00002.711278,00003.222336,00002.865039,00002.616312,-00000.437730,-00000.093034,-00000.564623,-00000.061690,-00000.030293,-00000.061313
0000000014725,00002.719994,00002.478360,00002.198021,00003.175563,00002.679140,00002.670802,00002.711336,00003.222178,00002.864975,00002.615889,-00000.438225,-00000.092973,-00000.564332,-00000.061463,-00000.029834,-00000.061108
0000000014726,00002.719815,00002.477761,00002.198224,00003.175328,00002.679139,00002.670642,00002.711174,00003.222062,00002.864564,00002.615455,-00000.438668,-00000.092986,-00000.564469,-00000.061224,-00000.029054,-00000.060902
0000000014727,00002.720045,00002.477337,00002.198052,00003.174625,00002.679099,00002.670550,00002.710861,00003.221927,00002.863421,00002.615094,-00000.438727,-00000.092934,-00000.564221,-00000.061393,-00000.028663,-00000.060728
0000000014728,00002.720256,00002.477190,00002.197862,00003.174062,00002.678735,00002.670413,00002.710360,00003.221828,00002.862345,00002.614000,-00000.439104,-00000.092945,-00000.564337,-00000.061190,-00000.028362,-00000.060191
0000000014729,00002.720451,00002.476829,00002.198078,00003.173101,00002.679063,00002.670334,00002.710456,00003.222076,00002.861373,00002.612967,-00000.439516,-00000.093264,-00000.564489,-00000.060971,-00000.027666,-00000.059680
0000000014730,00002.720631,00002.476341,00002.197916,00003.172258,00002.679117,00002.669856,00002.710393,00003.221991,00002.860094,00002.612035,-00000.440200,-00000.093636,-00000.564951,-00000.061160,-00000.027047,-00000.059222
0000000014731,00002.720434,00002.475309,00002.197737,00003.171078,00002.679033,00002.669063,00002.709748,00003.221477,00002.858540,00002.610793,-00000.441277,-00000.093907,-00000.565443,-00000.061337,-00000.026817,-00000.058787
0000000014732,00002.720224,00002.474530,00002.197963,00003.170360,00002.679442,00002.668655,00002.709695,00003.221768,00002.857452,00002.610000,-00000.441496,-00000.094224,-00000.565836,-00000.061861,-00000.027378,-00000.059122
0000000014733,00002.719694,00002.473651,00002.197448,00003.170081,00002.679008,00002.668343,00002.709146,00003.221693,00002.856129,00002.608943,-00000.441687,-00000.094455,-00000.566255,-00000.062012,-00000.028271,-00000.060203
0000000014734,00002.719153,00002.473351,00002.196914,00003.169833,00002.678993,00002.667633,00002.709100,00003.221215,00002.855565,00002.607905,-00000.441874,-00000.094725,-00000.566590,-00000.062095,-00000.029112,-00000.061577
0000000014735,00002.719064,00002.472603,00002.196475,00003.169595,00002.678986,00002.667368,00002.708634,00003.221151,00002.854439,00002.607005,-00000.441674,-00000.094558,-00000.566947,-00000.062223,-00000.030598,-00000.062860
0000000014736,00002.718240,00002.471622,00002.195658,00003.168659,00002.678973,00002.666401,00002.708232,00003.220744,00002.853234,00002.605758,-00000.441470,-00000.094425,-00000.567232,-00000.062657,-00000.032764,-00000.064030
0000000014737,00002.717440,00002.470622,00002.195285,00003.168093,00002.678967,00002.665449,00002.708197,00003.220327,00002.852275,00002.604992,-00000.441300,-00000.094646,-00000.567535,-00000.062766,-00000.034755,-00000.065122
0000000014738,00002.716738,00002.469787,00002.194589,00003.168022,00002.678594,00002.664988,00002.707855,00003.219981,00002.851612,00002.603931,-00000.441126,-00000.094533,-00000.567778,-00000.062773,-00000.036599,-00000.065756
0000000014739,00002.715694,00002.469299,00002.193908,00003.167540,00002.678589,00002.664178,00002.707826,00003.219626,00002.851158,00002.602916,-00000.440981,-00000.094359,-00000.567674,-00000.062865,-00000.038294,-00000.066323
0000000014740,00002.714734,00002.468951,00002.193316,00003.167479,00002.678633,00002.663423,00002.707897,00003.219331,00002.850594,00002.602013,-00000.440834,-00000.094262,-00000.567880,-00000.062871,-00000.039864,-00000.067224
0000000014741,00002.714207,00002.468535,00002.192737,00003.167795,00002.678267,00002.663096,00002.707872,00003.219028,00002.850208,00002.601148,-00000.440347,-00000.094476,-00000.568154,-00000.062950,-00000.040944,-00000.068070
0000000014742,00002.714116,00002.467876,00002.192595,00003.167743,00002.677942,00002.662817,00002.707570,00003.219140,00002.849364,00002.600379,-00000.440222,-00000.094757,-00000.568330,-00000.062955,-00000.041918,-00000.068837
0000000014743,00002.713305,00002.467159,00002.192102,00003.167286,00002.677629,00002.662538,00002.707549,00003.218520,00002.849036,00002.599644,-00000.440170,-00000.094577,-00000.568563,-00000.063022,-00000.042837,-00000.069557
0000000014744,00002.712864,00002.466961,00002.191619,00003.166879,00002.677716,00002.661937,00002.707655,00003.218252,00002.848318,00002.598989,-00000.440063,-00000.094453,-00000.568350,-00000.063026,-00000.043303,-00000.069848
0000000014745,00002.712900,00002.466351,00002.191562,00003.166491,00002.677813,00002.661700,00002.707274,00003.218087,00002.847312,00002.598363,-00000.439657,-00000.094299,-00000.568186,-00000.063083,-00000.043723,-00000.070098
0000000014746,00002.712524,00002.465819,00002.191513,00003.166144,00002.678249,00002.661552,00002.707364,00003.217859,00002.847064,00002.598168,-00000.439203,-00000.094194,-00000.568004,-00000.062724,-00000.044483,-00000.070345
0000000014747,00002.711829,00002.465662,00002.191465,00003.165813,00002.678331,00002.661350,00002.707765,00003.217719,00002.846934,00002.597635,-00000.438857,-00000.094063,-00000.567864,-00000.062772,-00000.044840,-00000.070558
0000000014748,00002.711509,00002.465573,00002.191060,00003.165518,00002.677977,00002.660860,00002.707842,00003.217162,00002.846722,00002.597107,-00000.438471,-00000.093973,-00000.568073,-00000.062829,-00000.045124,-00000.070769
0000000014749,00002.711643,00002.465077,00002.191019,00003.165236,00002.678047,00002.660689,00002.707821,00003.217405,00002.846248,00002.597016,-00000.438539,-00000.093862,-00000.567954,-00000.062871,-00000.045791,-00000.070950
0000000014750,00002.711734,00002.464637,00002.191038,00003.164985,00002.677746,00002.660635,00002.707886,00003.217657,00002.845705,00002.596566,-00000.438573,-00000.093786,-00000.567768,-00000.062556,-00000.046395,-00000.071492
0000000014751,00002.711122,00002.464578,00002.190640,00003.164745,00002.677806,00002.660489,00002.707868,00003.217501,00002.845665,00002.596126,-00000.438994,-00000.093328,-00000.567304,-00000.062229,-00000.046600,-00000.072009
0000000014752,00002.710836,00002.464204,00002.190293,00003.164532,00002.677549,00002.660443,00002.707561,00003.217352,00002.845203,00002.595380,-00000.439748,-00000.092900,-00000.567146,-00000.062324,-00000.046752,-00000.072471
0000000014753,00002.710678,00002.464153,00002.189954,00003.164690,00002.677237,00002.660318,00002.707545,00003.217220,00002.845168,00002.595005,-00000.440469,-00000.092511,-00000.566751,-00000.062408,-00000.046927,-00000.072548
0000000014754,00002.710435,00002.464198,00002.190022,00003.164146,00002.677018,00002.659916,00002.707647,00003.216730,00002.844775,00002.594370,-00000.441474,-00000.091784,-00000.566254,-00000.062489,-00000.047056,-00000.072941
0000000014755,00002.710300,00002.464154,00002.189733,00003.163918,00002.676753,00002.659810,00002.707271,00003.216617,00002.844746,00002.593688,-00000.442088,-00000.091452,-00000.565918,-00000.062561,-00000.047205,-00000.073369
0000000014756,00002.710094,00002.464192,00002.189791,00003.164180,00002.676930,00002.659831,00002.707357,00003.216564,00002.844774,00002.593511,-00000.442581,-00000.090833,-00000.565857,-00000.062630,-00000.047678,-00000.073704
0000000014757,00002.709979,00002.464156,00002.189908,00003.163986,00002.676704,00002.659741,00002.707400,00003.216105,00002.844749,00002.592930,-00000.443104,-00000.090551,-00000.565571,-00000.062691,-00000.048167,-00000.074431
0000000014758,00002.709803,00002.464188,00002.189957,00003.164209,00002.676491,00002.659759,00002.707473,00003.216059,00002.844410,00002.592779,-00000.443160,-00000.090387,-00000.565157,-00000.062749,-00000.048932,-00000.074716
0000000014759,00002.709343,00002.464157,00002.189694,00003.164406,00002.676299,00002.659682,00002.707510,00003.216031,00002.844026,00002.592648,-00000.443242,-00000.089784,-00000.564550,-00000.062438,-00000.049349,-00000.074973
0000000014760,00002.709193,00002.463458,00002.189736,00003.164233,00002.676481,00002.659697,00002.707572,00003.216355,00002.843737,00002.592882,-00000.443291,-00000.089281,-00000.563835,-00000.061763,-00000.048912,-00000.075215
0000000014761,00002.709526,00002.463069,00002.189875,00003.164039,00002.676680,00002.659632,00002.707240,00003.216694,00002.843410,00002.593133,-00000.443361,-00000.088768,-00000.563681,-00000.061498,-00000.048904,-00000.075434
0000000014762,00002.709761,00002.463200,00002.190273,00003.163891,00002.677198,00002.660007,00002.707294,00003.217332,00002.843527,00002.593695,-00000.443402,-00000.088703,-00000.563435,-00000.061648,-00000.049257,-00000.075277
0000000014763,00002.710046,00002.462869,00002.190754,00003.163726,00002.677004,00002.659951,00002.707011,00003.217258,00002.843249,00002.593908,-00000.443098,-00000.088629,-00000.563304,-00000.061786,-00000.049613,-00000.075101
0000000014764,00002.709883,00002.462980,00002.190730,00003.163600,00002.677082,00002.659546,00002.707056,00003.217076,00002.842986,00002.594024,-00000.442771,-00000.088573,-00000.563457,-00000.061914,-00000.049551,-00000.074967
0000000014765,00002.710125,00002.463061,00002.191140,00003.163460,00002.677643,00002.659498,00002.707179,00003.217013,00002.842749,00002.594206,-00000.442512,-00000.088510,-00000.563346,-00000.062031,-00000.049854,-00000.074817
0000000014766,00002.709986,00002.463156,00002.190757,00003.163353,00002.677710,00002.659515,00002.707217,00003.216858,00002.842887,00002.594304,-00000.442233,-00000.088463,-00000.563114,-00000.062140,-00000.049802,-00000.074704
0000000014767,00002.710192,00002.463225,00002.190743,00003.162870,00002.677824,00002.659475,00002.707321,00003.216804,00002.843049,00002.594459,-00000.442014,-00000.088409,-00000.563019,-00000.062239,-00000.048971,-00000.074575
0000000014768,00002.710074,00002.463306,00002.190779,00003.162779,00002.677881,00002.659127,00002.707354,00003.216310,00002.843529,00002.594543,-00000.441776,-00000.088369,-00000.563184,-00000.062332,-00000.048564,-00000.074479
0000000014769,00002.710250,00002.463364,00002.190767,00003.163094,00002.677616,00002.659093,00002.707443,00003.216264,00002.844029,00002.594312,-00000.441589,-00000.088323,-00000.563466,-00000.062417,-00000.048582,-00000.074007
0000000014770,00002.710149,00002.463433,00002.190798,00003.163016,00002.677664,00002.659159,00002.707471,00003.216206,00002.844439,00002.594383,-00000.441024,-00000.088289,-00000.563244,-00000.062496,-00000.048598,-00000.073562
0000000014771,00002.710661,00002.463483,00002.191151,00003.163284,00002.677801,00002.659493,00002.707546,00003.216892,00002.844864,00002.594550,-00000.440502,-00000.088250,-00000.563121,-00000.062568,-00000.048251,-00000.073160
0000000014772,00002.710939,00002.463179,00002.191540,00003.163218,00002.677842,00002.659549,00002.707207,00003.216843,00002.844850,00002.594610,-00000.439658,-00000.087858,-00000.562932,-00000.062273,-00000.048265,-00000.073144
0000000014773,00002.711012,00002.462858,00002.191478,00003.163446,00002.677596,00002.659833,00002.706909,00003.217064,00002.844850,00002.594752,-00000.438851,-00000.087825,-00000.562827,-00000.062334,-00000.048695,-00000.073528
0000000014774,00002.711248,00002.462599,00002.191446,00003.163390,00002.677631,00002.660244,00002.706983,00003.217385,00002.844838,00002.595166,-00000.438495,-00000.088217,-00000.563029,-00000.062808,-00000.049795,-00000.073877
0000000014775,00002.711310,00002.462327,00002.191030,00003.163221,00002.677058,00002.660123,00002.706729,00003.216848,00002.844474,00002.594924,-00000.438171,-00000.088552,-00000.563303,-00000.063223,-00000.051249,-00000.073841
0000000014776,00002.711148,00002.462469,00002.191004,00003.163537,00002.676725,00002.660473,00002.706792,00003.216758,00002.844464,00002.594914,-00000.437868,-00000.088523,-00000.563112,-00000.063264,-00000.052548,-00000.074138
0000000014777,00002.710838,00002.462237,00002.190649,00003.163393,00002.676601,00002.660733,00002.706939,00003.216664,00002.844518,00002.595070,-00000.437229,-00000.088445,-00000.562982,-00000.063255,-00000.053787,-00000.074470
0000000014778,00002.710701,00002.461995,00002.190264,00003.163661,00002.676317,00002.661031,00002.706629,00003.216587,00002.844146,00002.594699,-00000.436609,-00000.088420,-00000.562819,-00000.063289,-00000.054530,-00000.074723
0000000014779,00002.710437,00002.461435,00002.189962,00003.163176,00002.676574,00002.660889,00002.706391,00003.216507,00002.843829,00002.594832,-00000.436428,-00000.088353,-00000.562709,-00000.063644,-00000.055221,-00000.075006
0000000014780,00002.710320,00002.461229,00002.189634,00003.163404,00002.676333,00002.660780,00002.706128,00003.216442,00002.843513,00002.594516,-00000.436625,-00000.088332,-00000.562933,-00000.064036,-00000.056217,-00000.075221
0000000014781,00002.710095,00002.461115,00002.189740,00003.162991,00002.676552,00002.660659,00002.705926,00003.216374,00002.843243,00002.594630,-00000.436833,-00000.088276,-00000.563202,-00000.064338,-00000.057531,-00000.075462
0000000014782,00002.710358,00002.460940,00002.189824,00003.162823,00002.676346,00002.660929,00002.705702,00003.216681,00002.842973,00002.594723,-00000.437364,-00000.088258,-00000.563030,-00000.064672,-00000.058741,-00000.075645
0000000014783,00002.710167,00002.461205,00002.189551,00003.163560,00002.676532,00002.661189,00002.706255,00003.216623,00002.843469,00002.594820,-00000.437542,-00000.088210,-00000.563259,-00000.064929,-00000.059860,-00000.075850
0000000014784,00002.710028,00002.461419,00002.189259,00003.163779,00002.676720,00002.661419,00002.706427,00003.216522,00002.843965,00002.594537,-00000.437631,-00000.087832,-00000.563113,-00000.065214,-00000.060890,-00000.076369
0000000014785,00002.709503,00002.461282,00002.188665,00003.163681,00002.676516,00002.660915,00002.706535,00003.216109,00002.844025,00002.593894,-00000.437782,-00000.087428,-00000.562945,-00000.065433,-00000.062568,-00000.076906
0000000014786,00002.709747,00002.461101,00002.188416,00003.163505,00002.676313,00002.661110,00002.706319,00003.216023,00002.843721,00002.593290,-00000.437858,-00000.087106,-00000.562820,-00000.065675,-00000.064171,-00000.077711
0000000014787,00002.710025,00002.460985,00002.188273,00003.163421,00002.676139,00002.661044,00002.706048,00003.216035,00002.843409,00002.593105,-00000.437987,-00000.086762,-00000.562315,-00000.065861,-00000.065236,-00000.078531
0000000014788,00002.709871,00002.461193,00002.188061,00003.163634,00002.676329,00002.660847,00002.706226,00003.215962,00002.843514,00002.592591,-00000.437688,-00000.086126,-00000.561846,-00000.066067,-00000.066238,-00000.079578
0000000014789,00002.710470,00002.461094,00002.187939,00003.163563,00002.676181,00002.661154,00002.705996,00003.216334,00002.843248,00002.591708,-00000.437435,-00000.085470,-00000.561415,-00000.066226,-00000.067145,-00000.081002
0000000014790,00002.711064,00002.460546,00002.188122,00003.163382,00002.676343,00002.661349,00002.705785,00003.216272,00002.842974,00002.590908,-00000.436819,-00000.084928,-00000.561016,-00000.066401,-00000.068360,-00000.082620
0000000014791,00002.711575,00002.460462,00002.188381,00003.162958,00002.676580,00002.661247,00002.705952,00003.216589,00002.842748,00002.590156,-00000.436240,-00000.084370,-00000.560650,-00000.066536,-00000.069496,-00000.083832
0000000014792,00002.712080,00002.460359,00002.188536,00003.162441,00002.676717,00002.661414,00002.706135,00003.217262,00002.842515,00002.589838,-00000.435715,-00000.083909,-00000.560310,-00000.066685,-00000.070167,-00000.084483
0000000014793,00002.712515,00002.460287,00002.188756,00003.162443,00002.676919,00002.661327,00002.706277,00003.217532,00002.842322,00002.589198,-00000.435223,-00000.083796,-00000.560361,-00000.066800,-00000.070771,-00000.085152
0000000014794,00002.712583,00002.460199,00002.188526,00003.162003,00002.677036,00002.661106,00002.706433,00003.217379,00002.842124,00002.588201,-00000.434776,-00000.083766,-00000.560071,-00000.066565,-00000.070980,-00000.085344
0000000014795,00002.712590,00002.460137,00002.188351,00003.161642,00002.677208,00002.661032,00002.706554,00003.217609,00002.841960,00002.587293,-00000.433994,-00000.083671,-00000.559752,-00000.066300,-00000.071131,-00000.085913
0000000014796,00002.712285,00002.460425,00002.187792,00003.161993,00002.676945,00002.660844,00002.706324,00003.217479,00002.842154,00002.586445,-00000.433251,-00000.083645,-00000.559506,-00000.066099,-00000.071672,-00000.086439
0000000014797,00002.712653,00002.460373,00002.187643,00003.162048,00002.677091,00002.661144,00002.706427,00003.218037,00002.842377,00002.586035,-00000.432585,-00000.083564,-00000.559233,-00000.065874,-00000.072163,-00000.086924
0000000014798,00002.712756,00002.460618,00002.187530,00003.162347,00002.676867,00002.661346,00002.706594,00003.217926,00002.842905,00002.585675,-00000.431952,-00000.083542,-00000.559387,-00000.065703,-00000.072261,-00000.087372
0000000014799,00002.712708,00002.460574,00002.187403,00003.162394,00002.676629,00002.661239,00002.706318,00003.217313,00002.843095,00002.584964,-00000.431386,-00000.083473,-00000.559155,-00000.065511,-00000.072316,-00000.087785
0000000014800,00002.712795,00002.460419,00002.187669,00003.161923,00002.676801,00002.661048,00002.706461,00003.217582,00002.842819,00002.584658,-00000.430847,-00000.083454,-00000.559285,-00000.065365,-00000.072037,-00000.087803
0000000014801,00002.713117,00002.460382,00002.187924,00003.161963,00002.676961,00002.660957,00002.706589,00003.217786,00002.842618,00002.584415,-00000.430365,-00000.083758,-00000.559451,-00000.065202,-00000.071358,-00000.087429
0000000014802,00002.713191,00002.460250,00002.188151,00003.161925,00002.676744,00002.660795,00002.706710,00003.218014,00002.842383,00002.584154,-00000.429906,-00000.084105,-00000.559562,-00000.065078,-00000.070395,-00000.087082
0000000014803,00002.713102,00002.460218,00002.188005,00003.161596,00002.676518,00002.660717,00002.706457,00003.218188,00002.842212,00002.584310,-00000.429495,-00000.084001,-00000.559703,-00000.064939,-00000.069817,-00000.086763
0000000014804,00002.713528,00002.460106,00002.188198,00003.161563,00002.676696,00002.660942,00002.706197,00003.218382,00002.842012,00002.584088,-00000.429105,-00000.083934,-00000.559435,-00000.064834,-00000.069360,-00000.086468
0000000014805,00002.713815,00002.460079,00002.188437,00003.162009,00002.676503,00002.661238,00002.705981,00003.218530,00002.841866,00002.583858,-00000.428755,-00000.083845,-00000.559192,-00000.064715,-00000.068868,-00000.086196
0000000014806,00002.714178,00002.459984,00002.188601,00003.161981,00002.676655,00002.661067,00002.706123,00003.218695,00002.841695,00002.583669,-00000.428423,-00000.083788,-00000.559326,-00000.064626,-00000.068116,-00000.085945
0000000014807,00002.714059,00002.460323,00002.188442,00003.162361,00002.676491,00002.661319,00002.706302,00003.218821,00002.842297,00002.583473,-00000.428125,-00000.084075,-00000.559483,-00000.064525,-00000.067697,-00000.085714
0000000014808,00002.714006,00002.460605,00002.188219,00003.162337,00002.676258,00002.661536,00002.706423,00003.218237,00002.842877,00002.582950,-00000.427842,-00000.084026,-00000.559597,-00000.064448,-00000.067419,-00000.085500
0000000014809,00002.714630,00002.460894,00002.188083,00003.162660,00002.676118,00002.661751,00002.706212,00003.218344,00002.843027,00002.582420,-00000.427589,-00000.084271,-00000.559730,-00000.064363,-00000.067063,-00000.085303
0000000014810,00002.714584,00002.461497,00002.187893,00003.162640,00002.675919,00002.661936,00002.706315,00003.218209,00002.843158,00002.581974,-00000.427711,-00000.084592,-00000.559827,-00000.064660,-00000.066827,-00000.085121
0000000014811,00002.714753,00002.462106,00002.188140,00003.162552,00002.676526,00002.662119,00002.706861,00003.218663,00002.843648,00002.581886,-00000.427495,-00000.084800,-00000.559940,-00000.064950,-00000.066161,-00000.084954
0000000014812,00002.715077,00002.461893,00002.188342,00003.162535,00002.676357,00002.662276,00002.706586,00003.218911,00002.843760,00002.581507,-00000.427236,-00000.085074,-00000.560023,-00000.065204,-00000.065597,-00000.084798
0000000014813,00002.715221,00002.462049,00002.188552,00003.162461,00002.676148,00002.662431,00002.706326,00003.219297,00002.843814,00002.581069,-00000.427053,-00000.084888,-00000.560120,-00000.065087,-00000.065030,-00000.084656
0000000014814,00002.715496,00002.462231,00002.188723,00003.162809,00002.676004,00002.662928,00002.706091,00003.219871,00002.843909,00002.581109,-00000.426832,-00000.084758,-00000.560190,-00000.064940,-00000.064550,-00000.084524
0000000014815,00002.715619,00002.462363,00002.188902,00003.162745,00002.676188,00002.663061,00002.705870,00003.220200,00002.843956,00002.581099,-00000.426676,-00000.084600,-00000.560272,-00000.064841,-00000.063704,-00000.084403
0000000014816,00002.715853,00002.462881,00002.189048,00003.162679,00002.676791,00002.663121,00002.706396,00003.220688,00002.844400,00002.581133,-00000.426488,-00000.084490,-00000.560332,-00000.064716,-00000.063295,-00000.084290
0000000014817,00002.715958,00002.462993,00002.189201,00003.162625,00002.676949,00002.663233,00002.706570,00003.220968,00002.844802,00002.581125,-00000.426718,-00000.084718,-00000.560402,-00000.064632,-00000.063301,-00000.084187
0000000014818,00002.716157,00002.463434,00002.188962,00003.162568,00002.676736,00002.662922,00002.706655,00003.220659,00002.845180,00002.580791,-00000.426558,-00000.084624,-00000.560453,-00000.064526,-00000.062953,-00000.084091
0000000014819,00002.716609,00002.464255,00002.189092,00003.162885,00002.676507,00002.663381,00002.706803,00003.220534,00002.845522,00002.580421,-00000.426391,-00000.084818,-00000.560513,-00000.064454,-00000.062595,-00000.084003
0000000014820,00002.716779,00002.464631,00002.189251,00003.162837,00002.676690,00002.663478,00002.706876,00003.220634,00002.845481,00002.580499,-00000.426255,-00000.084738,-00000.560193,-00000.064001,-00000.062299,-00000.083922
0000000014821,00002.716801,00002.464967,00002.189362,00003.163106,00002.676495,00002.663869,00002.707002,00003.220890,00002.845772,00002.580184,-00000.426113,-00000.084541,-00000.559881,-00000.063577,-00000.061994,-00000.083847
0000000014822,00002.716945,00002.465287,00002.189498,00003.163428,00002.676287,00002.664314,00002.707063,00003.221338,00002.846463,00002.580251,-00000.425997,-00000.084472,-00000.559610,-00000.063553,-00000.061742,-00000.083778
0000000014823,00002.717326,00002.465210,00002.189955,00003.163658,00002.676484,00002.664284,00002.706808,00003.221556,00002.846711,00002.580346,-00000.425876,-00000.084304,-00000.559344,-00000.063555,-00000.061846,-00000.084077
0000000014824,00002.717450,00002.465845,00002.190070,00003.164294,00002.676670,00002.664301,00002.707223,00003.221937,00002.847299,00002.580403,-00000.425414,-00000.084246,-00000.559112,-00000.063173,-00000.061994,-00000.084018
0000000014825,00002.717411,00002.466143,00002.190096,00003.164127,00002.676837,00002.664275,00002.707369,00003.221760,00002.847510,00002.580484,-00000.424948,-00000.084103,-00000.558886,-00000.062812,-00000.061719,-00000.083909
0000000014826,00002.717879,00002.465957,00002.190195,00003.163944,00002.676996,00002.664289,00002.706997,00003.222084,00002.847285,00002.580532,-00000.424918,-00000.084054,-00000.559052,-00000.062849,-00000.061482,-00000.083496
0000000014827,00002.717846,00002.465848,00002.190580,00003.163801,00002.677501,00002.664267,00002.707120,00003.221934,00002.847465,00002.580601,-00000.424885,-00000.084295,-00000.559222,-00000.063267,-00000.061974,-00000.083041
0000000014828,00002.717519,00002.466053,00002.190664,00003.164370,00002.677273,00002.664279,00002.707166,00003.221484,00002.847636,00002.580279,-00000.424496,-00000.084616,-00000.559363,-00000.063661,-00000.062861,-00000.082690
0000000014829,00002.717491,00002.466323,00002.190629,00003.164975,00002.677341,00002.664261,00002.707634,00003.220994,00002.847789,00002.580337,-00000.424105,-00000.084458,-00000.559508,-00000.064017,-00000.063642,-00000.082665
0000000014830,00002.717213,00002.466135,00002.190337,00003.164734,00002.677146,00002.663908,00002.707674,00003.220611,00002.847572,00002.580064,-00000.423774,-00000.084368,-00000.559628,-00000.063990,-00000.064034,-00000.082366
0000000014831,00002.716826,00002.465639,00002.189945,00003.164160,00002.677204,00002.663529,00002.707347,00003.220193,00002.847339,00002.579751,-00000.423441,-00000.084234,-00000.559752,-00000.063931,-00000.063611,-00000.081982
0000000014832,00002.716589,00002.465479,00002.189697,00003.163955,00002.677039,00002.663229,00002.707380,00003.219867,00002.847154,00002.579518,-00000.423159,-00000.084158,-00000.559854,-00000.063908,-00000.062857,-00000.081728
0000000014833,00002.716623,00002.465057,00002.189363,00003.163829,00002.677088,00002.662907,00002.707464,00003.219874,00002.846956,00002.579614,-00000.422875,-00000.084406,-00000.559959,-00000.063857,-00000.062134,-00000.081401
0000000014834,00002.716421,00002.464920,00002.189151,00003.164017,00002.677310,00002.663377,00002.707856,00003.219960,00002.847162,00002.579778,-00000.422999,-00000.084704,-00000.560046,-00000.064200,-00000.061854,-00000.081184
0000000014835,00002.716449,00002.464561,00002.188867,00003.163910,00002.676989,00002.663103,00002.707565,00003.219603,00002.846631,00002.579497,-00000.423120,-00000.084916,-00000.560135,-00000.064520,-00000.061964,-00000.081269
0000000014836,00002.716640,00002.464082,00002.188687,00003.163708,00002.677178,00002.662777,00002.707535,00003.219676,00002.846443,00002.579637,-00000.423225,-00000.085169,-00000.560210,-00000.064812,-00000.062089,-00000.081447
0000000014837,00002.716665,00002.463776,00002.188808,00003.163616,00002.677267,00002.662906,00002.707650,00003.219735,00002.846353,00002.579761,-00000.423328,-00000.085349,-00000.560286,-00000.065084,-00000.061820,-00000.081156
0000000014838,00002.716827,00002.463368,00002.189017,00003.163807,00002.677428,00002.663355,00002.707625,00003.220159,00002.846556,00002.579880,-00000.423417,-00000.085565,-00000.560712,-00000.065332,-00000.061563,-00000.080945
0000000014839,00002.716848,00002.463108,00002.188757,00003.163729,00002.677504,00002.663102,00002.707723,00003.220210,00002.846480,00002.579986,-00000.423505,-00000.085718,-00000.561139,-00000.065564,-00000.061334,-00000.080698
0000000014840,00002.716986,00002.462761,00002.188936,00003.163891,00002.677278,00002.663484,00002.707701,00003.220571,00002.846653,00002.580087,-00000.423581,-00000.085902,-00000.561139,-00000.065776,-00000.060753,-00000.080518
0000000014841,00002.716641,00002.462902,00002.188352,00003.164188,00002.676980,00002.663632,00002.707784,00003.220251,00002.846951,00002.579814,-00000.423656,-00000.085670,-00000.561140,-00000.065973,-00000.060558,-00000.080307
0000000014842,00002.716759,00002.462243,00002.188141,00003.163963,00002.676788,00002.663594,00002.707403,00003.220196,00002.846735,00002.579900,-00000.423358,-00000.085463,-00000.561140,-00000.065790,-00000.060426,-00000.080154
0000000014843,00002.716828,00002.462364,00002.188006,00003.164216,00002.676897,00002.664082,00002.707474,00003.220287,00002.847351,00002.580031,-00000.423421,-00000.085628,-00000.560778,-00000.065595,-00000.060260,-00000.079975
0000000014844,00002.716566,00002.462529,00002.187827,00003.164387,00002.676734,00002.664050,00002.707513,00003.219877,00002.847530,00002.579741,-00000.423530,-00000.085815,-00000.560778,-00000.065440,-00000.060148,-00000.079845
0000000014845,00002.716262,00002.462268,00002.187712,00003.163876,00002.676827,00002.663740,00002.707573,00003.219591,00002.846967,00002.579489,-00000.423585,-00000.085956,-00000.560833,-00000.065637,-00000.060369,-00000.080055
0000000014846,00002.716038,00002.462046,00002.187559,00003.163660,00002.677050,00002.663350,00002.707606,00003.219242,00002.846756,00002.579606,-00000.423677,-00000.085752,-00000.560470,-00000.065504,-00000.060637,-00000.080307
0000000014847,00002.715054,00002.461824,00002.187099,00003.162862,00002.676404,00002.662724,00002.707294,00003.218636,00002.846639,00002.579391,-00000.423361,-00000.085509,-00000.560154,-00000.065309,-00000.060825,-00000.080486
0000000014848,00002.715226,00002.461635,00002.186969,00003.162315,00002.676957,00002.662754,00002.707685,00003.219065,00002.846823,00002.579853,-00000.423440,-00000.085336,-00000.559845,-00000.065196,-00000.060690,-00000.080337
0000000014849,00002.714751,00002.461446,00002.186940,00003.162361,00002.677132,00002.662584,00002.707783,00003.219275,00002.847086,00002.580034,-00000.423533,-00000.085129,-00000.559576,-00000.065030,-00000.060125,-00000.080127
0000000014850,00002.714535,00002.461285,00002.186829,00003.162258,00002.676877,00002.662610,00002.707390,00003.218914,00002.846880,00002.580064,-00000.423237,-00000.084982,-00000.559313,-00000.064934,-00000.060009,-00000.080001
0000000014851,00002.714856,00002.461125,00002.186804,00003.162661,00002.676663,00002.662828,00002.707473,00003.219455,00002.847104,00002.580218,-00000.422954,-00000.084805,-00000.558721,-00000.064430,-00000.059891,-00000.079821
0000000014852,00002.715035,00002.460987,00002.187073,00003.162573,00002.676809,00002.662850,00002.707138,00003.219511,00002.846928,00002.580244,-00000.422702,-00000.084680,-00000.558134,-00000.063986,-00000.059793,-00000.079714
0000000014853,00002.715308,00002.460851,00002.187052,00003.162916,00002.676627,00002.663035,00002.706846,00003.219609,00002.846756,00002.580374,-00000.422461,-00000.084530,-00000.557630,-00000.063556,-00000.059330,-00000.079924
0000000014854,00002.715098,00002.461097,00002.186918,00003.163204,00002.676389,00002.663054,00002.706924,00003.219294,00002.846969,00002.580396,-00000.422247,-00000.084423,-00000.557494,-00000.063178,-00000.058883,-00000.079833
0000000014855,00002.714605,00002.461343,00002.186537,00003.163133,00002.676234,00002.662849,00002.707038,00003.219014,00002.847186,00002.580145,-00000.422042,-00000.084295,-00000.557427,-00000.062813,-00000.058489,-00000.079286
0000000014856,00002.714426,00002.461190,00002.186060,00003.163015,00002.676031,00002.662502,00002.706379,00003.218746,00002.846642,00002.579801,-00000.421859,-00000.084204,-00000.557311,-00000.062490,-00000.058472,-00000.079208
0000000014857,00002.714732,00002.461037,00002.186099,00003.163317,00002.675899,00002.662690,00002.706114,00003.218871,00002.846463,00002.579949,-00000.421322,-00000.084095,-00000.556892,-00000.062179,-00000.058136,-00000.079106
0000000014858,00002.714579,00002.460906,00002.186055,00003.163217,00002.676089,00002.662395,00002.706641,00003.219005,00002.846363,00002.580382,-00000.420804,-00000.084018,-00000.556430,-00000.062268,-00000.057758,-00000.079039
0000000014859,00002.714114,00002.461139,00002.186088,00003.163837,00002.676702,00002.662193,00002.707140,00003.219111,00002.846573,00002.581234,-00000.420709,-00000.083925,-00000.556073,-00000.062366,-00000.057110,-00000.078589
0000000014860,00002.713622,00002.461390,00002.185689,00003.164478,00002.676501,00002.662304,00002.707226,00003.218863,00002.846851,00002.581603,-00000.420630,-00000.083859,-00000.555680,-00000.062441,-00000.056063,-00000.077807
0000000014861,00002.713226,00002.461225,00002.185717,00003.164643,00002.676661,00002.662132,00002.707289,00003.218591,00002.847030,00002.582328,-00000.420550,-00000.083781,-00000.555739,-00000.062525,-00000.055510,-00000.077061
0000000014862,00002.712806,00002.461440,00002.185739,00003.165188,00002.676489,00002.662227,00002.707362,00003.218379,00002.847266,00002.582642,-00000.420483,-00000.083724,-00000.555767,-00000.062589,-00000.054982,-00000.076758
0000000014863,00002.712832,00002.461299,00002.185763,00003.165328,00002.676262,00002.662443,00002.707052,00003.218510,00002.847056,00002.583259,-00000.420414,-00000.084020,-00000.555818,-00000.062660,-00000.054875,-00000.076486
0000000014864,00002.712838,00002.461119,00002.186145,00003.165430,00002.676479,00002.662523,00002.707115,00003.218330,00002.847257,00002.583526,-00000.420358,-00000.084335,-00000.555842,-00000.062715,-00000.054425,-00000.076228
0000000014865,00002.713222,00002.460999,00002.186165,00003.165549,00002.676286,00002.662707,00002.706851,00003.218442,00002.847078,00002.584052,-00000.420299,-00000.084224,-00000.555522,-00000.062775,-00000.053971,-00000.075996
0000000014866,00002.712865,00002.460846,00002.186128,00003.165636,00002.676471,00002.662776,00002.706904,00003.218651,00002.847249,00002.584642,-00000.420251,-00000.084492,-00000.555542,-00000.062822,-00000.053225,-00000.075414
0000000014867,00002.712466,00002.460744,00002.186145,00003.165375,00002.676669,00002.662207,00002.707042,00003.218383,00002.847460,00002.584727,-00000.420201,-00000.084761,-00000.555632,-00000.062873,-00000.052475,-00000.074854
0000000014868,00002.712525,00002.460613,00002.186476,00003.165448,00002.676826,00002.661903,00002.707088,00003.218562,00002.847606,00002.585229,-00000.420160,-00000.084989,-00000.555650,-00000.062913,-00000.051841,-00000.074721
0000000014869,00002.712548,00002.460527,00002.186853,00003.165951,00002.676995,00002.662144,00002.706843,00003.218696,00002.848148,00002.585664,-00000.420118,-00000.085217,-00000.556089,-00000.062956,-00000.051565,-00000.074607
0000000014870,00002.712235,00002.460778,00002.186772,00003.166740,00002.676766,00002.662248,00002.706881,00003.218485,00002.848997,00002.585729,-00000.420445,-00000.085412,-00000.556467,-00000.062990,-00000.051751,-00000.074494
0000000014871,00002.712618,00002.460705,00002.187094,00003.167531,00002.676910,00002.662816,00002.707035,00003.218600,00002.849821,00002.586099,-00000.420772,-00000.085606,-00000.556841,-00000.063390,-00000.051879,-00000.074759
0000000014872,00002.712714,00002.460556,00002.187387,00003.167839,00002.677078,00002.662904,00002.706705,00003.218783,00002.850545,00002.586517,-00000.421051,-00000.085771,-00000.557163,-00000.063419,-00000.052037,-00000.075026
0000000014873,00002.713041,00002.460856,00002.187661,00003.168876,00002.677200,00002.663388,00002.706837,00003.219244,00002.851609,00002.586832,-00000.421329,-00000.086300,-00000.557481,-00000.063759,-00000.052146,-00000.075252
0000000014874,00002.712760,00002.461455,00002.187911,00003.169863,00002.677343,00002.663826,00002.707281,00003.219400,00002.852950,00002.587188,-00000.421567,-00000.086441,-00000.557755,-00000.063784,-00000.052280,-00000.075479
0000000014875,00002.712674,00002.461348,00002.188144,00003.170383,00002.677084,00002.663875,00002.707030,00003.219429,00002.853494,00002.587819,-00000.421804,-00000.086527,-00000.557663,-00000.063711,-00000.052736,-00000.076034
0000000014876,00002.712798,00002.461132,00002.188719,00003.170498,00002.677206,00002.663885,00002.707046,00003.219562,00002.853910,00002.588485,-00000.422006,-00000.086647,-00000.557534,-00000.063732,-00000.053213,-00000.076590
0000000014877,00002.712363,00002.461040,00002.188555,00003.170941,00002.676986,00002.663927,00002.706832,00003.219224,00002.854735,00002.589022,-00000.422207,-00000.086721,-00000.557456,-00000.063670,-00000.053601,-00000.076700
0000000014878,00002.712468,00002.460857,00002.188682,00003.171039,00002.676726,00002.663935,00002.706483,00003.219337,00002.855090,00002.589589,-00000.422742,-00000.086823,-00000.557345,-00000.063688,-00000.054007,-00000.076811
0000000014879,00002.712460,00002.460779,00002.188905,00003.171053,00002.676902,00002.663971,00002.706301,00003.219412,00002.855430,00002.590409,-00000.423277,-00000.086886,-00000.557642,-00000.063635,-00000.054701,-00000.077267
0000000014880,00002.712187,00002.460623,00002.188650,00003.171136,00002.676681,00002.663615,00002.706366,00003.218783,00002.856094,00002.590892,-00000.423732,-00000.086973,-00000.557910,-00000.063650,-00000.055772,-00000.077724
0000000014881,00002.712180,00002.460194,00002.188477,00003.170785,00002.676468,00002.663645,00002.705849,00003.218847,00002.856383,00002.591227,-00000.423824,-00000.087027,-00000.558163,-00000.063605,-00000.056725,-00000.078112
0000000014882,00002.712310,00002.459698,00002.188261,00003.170494,00002.676643,00002.663705,00002.705541,00003.219036,00002.856586,00002.592001,-00000.423849,-00000.087101,-00000.558029,-00000.063618,-00000.057274,-00000.078501
0000000014883,00002.711942,00002.460058,00002.188476,00003.170558,00002.676824,00002.663731,00002.705826,00003.218728,00002.857195,00002.592286,-00000.423928,-00000.087147,-00000.558243,-00000.063579,-00000.057723,-00000.078832
0000000014884,00002.711690,00002.459999,00002.188292,00003.169946,00002.676972,00002.663420,00002.705928,00003.218890,00002.857368,00002.592582,-00000.423949,-00000.087210,-00000.558129,-00000.063953,-00000.058190,-00000.078800
0000000014885,00002.711014,00002.459580,00002.188112,00003.169275,00002.676764,00002.662716,00002.705807,00003.218264,00002.857161,00002.592825,-00000.424015,-00000.087248,-00000.557949,-00000.063921,-00000.058572,-00000.079082
0000000014886,00002.711162,00002.459530,00002.188318,00003.169118,00002.676891,00002.662813,00002.705531,00003.218402,00002.857308,00002.593077,-00000.424034,-00000.087302,-00000.557852,-00000.063513,-00000.058970,-00000.079418
0000000014887,00002.710949,00002.459536,00002.188165,00003.168909,00002.676713,00002.662577,00002.705791,00003.218232,00002.857494,00002.593646,-00000.424090,-00000.086972,-00000.557699,-00000.063123,-00000.059295,-00000.079657
0000000014888,00002.711075,00002.459856,00002.188340,00003.168775,00002.677184,00002.662660,00002.706281,00003.217987,00002.857620,00002.593861,-00000.424106,-00000.087018,-00000.557979,-00000.063139,-00000.059634,-00000.079943
0000000014889,00002.711257,00002.459861,00002.188210,00003.168961,00002.677032,00002.662822,00002.706140,00003.218205,00002.857778,00002.593983,-00000.424154,-00000.087100,-00000.558212,-00000.063169,-00000.060273,-00000.080147
0000000014890,00002.711001,00002.459770,00002.187997,00003.168847,00002.677070,00002.662530,00002.706195,00003.217996,00002.857885,00002.594165,-00000.424167,-00000.087139,-00000.558450,-00000.063182,-00000.060924,-00000.080391
0000000014891,00002.710793,00002.460138,00002.187886,00003.169004,00002.677304,00002.662667,00002.706800,00003.217819,00002.858020,00002.594632,-00000.424208,-00000.087209,-00000.558648,-00000.063208,-00000.061469,-00000.080564
0000000014892,00002.710213,00002.460061,00002.187704,00003.168544,00002.677337,00002.662419,00002.706847,00003.217641,00002.858111,00002.594787,-00000.423857,-00000.087242,-00000.558488,-00000.063220,-00000.062023,-00000.080771
0000000014893,00002.709673,00002.460011,00002.187610,00003.167953,00002.677173,00002.661810,00002.706636,00003.217128,00002.858226,00002.594822,-00000.423529,-00000.087301,-00000.558294,-00000.063242,-00000.062124,-00000.080919
0000000014894,00002.709542,00002.459582,00002.187455,00003.167924,00002.676838,00002.661961,00002.705950,00003.216976,00002.857940,00002.594954,-00000.423592,-00000.087330,-00000.558158,-00000.063252,-00000.062233,-00000.081096
0000000014895,00002.709807,00002.459540,00002.187737,00003.167784,00002.677061,00002.661806,00002.706134,00003.216902,00002.858038,00002.594984,-00000.423676,-00000.087380,-00000.557992,-00000.063270,-00000.062319,-00000.081222
0000000014896,00002.709696,00002.459538,00002.187606,00003.168122,00002.676776,00002.661572,00002.706276,00003.216773,00002.858521,00002.595096,-00000.423730,-00000.087404,-00000.557877,-00000.063279,-00000.062774,-00000.081735
0000000014897,00002.709922,00002.459864,00002.187846,00003.168365,00002.676966,00002.661803,00002.706795,00003.216710,00002.858604,00002.595121,-00000.423439,-00000.087085,-00000.557736,-00000.063295,-00000.062847,-00000.082205
0000000014898,00002.709464,00002.459862,00002.187734,00003.168653,00002.676723,00002.661603,00002.706915,00003.216600,00002.858652,00002.595217,-00000.423485,-00000.087105,-00000.558000,-00000.063302,-00000.062872,-00000.082641
0000000014899,00002.709294,00002.459415,00002.187576,00003.168497,00002.676885,00002.661800,00002.706632,00003.216909,00002.858360,00002.595239,-00000.425051,-00000.087558,-00000.558243,-00000.063678,-00000.062934,-00000.082678
0000000014900,00002.708541,00002.459051,00002.187118,00003.168380,00002.676316,00002.661267,00002.706735,00003.216453,00002.858401,00002.594957,-00000.429806,-00000.087576,-00000.558468,-00000.064047,-00000.063319,-00000.083050
0000000014901,00002.707671,00002.458670,00002.186983,00003.168247,00002.676091,00002.660709,00002.706856,00003.216353,00002.857790,00002.594975,-00000.439120,-00000.087236,-00000.558674,-00000.065093,-00000.064097,-00000.084170
0000000014902,00002.706668,00002.458360,00002.186593,00003.168510,00002.675243,00002.659893,00002.706580,00003.215964,00002.856736,00002.594736,-00000.451150,-00000.086888,-00000.558866,-00000.066495,-00000.064787,-00000.085212
0000000014903,00002.705564,00002.458035,00002.186116,00003.169122,00002.674689,00002.657604,00002.706321,00003.215517,00002.855853,00002.594026,-00000.465610,-00000.086599,-00000.559405,-00000.068474,-00000.064361,-00000.085440
0000000014904,00002.705072,00002.457408,00002.186146,00003.168983,00002.674693,00002.655095,00002.706087,00003.215912,00002.854593,00002.593822,-00000.483469,-00000.086666,-00000.559931,-00000.070394,-00000.063135,-00000.085239
0000000014905,00002.703770,00002.456407,00002.185377,00003.168779,00002.673858,00002.652420,00002.705866,00003.215168,00002.853479,00002.592855,-00000.505574,-00000.087871,-00000.560752,-00000.072804,-00000.062047,-00000.084708
0000000014906,00002.702263,00002.455148,00002.184678,00003.168661,00002.673499,00002.649196,00002.705666,00003.214416,00002.851681,00002.591593,-00000.533839,-00000.089379,-00000.561200,-00000.075526,-00000.061002,-00000.083811
0000000014907,00002.700066,00002.450667,00002.183660,00003.168487,00002.672788,00002.645106,00002.705115,00003.213420,00002.849644,00002.590044,-00000.567894,-00000.091493,-00000.561536,-00000.078666,-00000.060802,-00000.083721
0000000014908,00002.698058,00002.445604,00002.183065,00003.169112,00002.672119,00002.641635,00002.704583,00003.213142,00002.847387,00002.588607,-00000.607556,-00000.094228,-00000.561554,-00000.082072,-00000.062089,-00000.084771
0000000014909,00002.695462,00002.440701,00002.182561,00003.170415,00002.671514,00002.637790,00002.704114,00003.212657,00002.844927,00002.586563,-00000.656500,-00000.098204,-00000.561115,-00000.085471,-00000.064821,-00000.086509
0000000014910,00002.691938,00002.434940,00002.182054,00003.171310,00002.670945,00002.633022,00002.703297,00003.212058,00002.841193,00002.584976,-00000.711306,-00000.102709,-00000.560405,-00000.088371,-00000.066280,-00000.087403
0000000014911,00002.688277,00002.429678,00002.181626,00003.172782,00002.670430,00002.627934,00002.702535,00003.211282,00002.837647,00002.583236,-00000.768573,-00000.107546,-00000.559669,-00000.090901,-00000.066792,-00000.087068
0000000014912,00002.684914,00002.424411,00002.180831,00003.176083,00002.669945,00002.622787,00002.701841,00003.210409,00002.834105,00002.580797,-00000.826113,-00000.112832,-00000.559427,-00000.093732,-00000.067671,-00000.086741
0000000014913,00002.681435,00002.418843,00002.180104,00003.180239,00002.669144,00002.617730,00002.701192,00003.209749,00002.830362,00002.578228,-00000.882483,-00000.118400,-00000.559888,-00000.096612,-00000.069195,-00000.086819
0000000014914,00002.677847,00002.413271,00002.179427,00003.184500,00002.668006,00002.612260,00002.700237,00003.208280,00002.826621,00002.575426,-00000.938360,-00000.123989,-00000.560408,-00000.099385,-00000.071757,-00000.087992
0000000014915,00002.674522,00002.407442,00002.179171,00003.193843,00002.667324,00002.607230,00002.699322,00003.207718,00002.823071,00002.573601,-00000.993966,-00000.129818,-00000.560075,-00000.100748,-00000.074868,-00000.089509
0000000014916,00002.670379,00002.401973,00002.178958,00003.202912,00002.667081,00002.602210,00002.698147,00003.206468,00002.820249,00002.571579,-00001.049879,-00000.136389,-00000.559429,-00000.101658,-00000.077413,-00000.090870
0000000014917,00002.665372,00002.395197,00002.178377,00003.211228,00002.666500,00002.596477,00002.696280,00003.204901,00002.816864,00002.568937,-00001.106649,-00000.144253,-00000.558783,-00000.103181,-00000.078610,-00000.091799
0000000014918,00002.660031,00002.388727,00002.177833,00003.219675,00002.665930,00002.590389,00002.694917,00003.203111,00002.814099,00002.566852,-00001.161503,-00000.152387,-00000.558596,-00000.105407,-00000.080413,-00000.091870
0000000014919,00002.654317,00002.381871,00002.177338,00003.227480,00002.664710,00002.584420,00002.692601,00003.201051,00002.811218,00002.564241,-00001.212734,-00000.160171,-00000.558772,-00000.107429,-00000.083609,-00000.091572
0000000014920,00002.649408,00002.375275,00002.176875,00003.235396,00002.664225,00002.579238,00002.691078,00003.199527,00002.808501,00002.562466,-00001.260882,-00000.167821,-00000.559338,-00000.108961,-00000.087684,-00000.091632
0000000014921,00002.644181,00002.369438,00002.176091,00003.242766,00002.663912,00002.574156,00002.689833,00003.197774,00002.806411,00002.560605,-00001.305946,-00000.174809,-00000.560213,-00000.109594,-00000.092218,-00000.092104
0000000014922,00002.639276,00002.362371,00002.174971,00003.250231,00002.663499,00002.569382,00002.688173,00003.196477,00002.804098,00002.558732,-00001.349837,-00000.182047,-00000.561058,-00000.110172,-00000.095687,-00000.092518
0000000014923,00002.634463,00002.355225,00002.172127,00003.256867,00002.662507,00002.564693,00002.686024,00003.195347,00002.801593,00002.555697,-00001.392554,-00000.189811,-00000.562891,-00000.111437,-00000.098459,-00000.092194
0000000014924,00002.629562,00002.348484,00002.168996,00003.262859,00002.661793,00002.559903,00002.683886,00003.193880,00002.798899,00002.552288,-00001.433183,-00000.197786,-00000.565788,-00000.113743,-00000.101049,-00000.091095
0000000014925,00002.624740,00002.342401,00002.165850,00003.268872,00002.661311,00002.555549,00002.682057,00003.192555,00002.796766,00002.549342,-00001.470999,-00000.205484,-00000.569162,-00000.115908,-00000.103772,-00000.089369
0000000014926,00002.620204,00002.336662,00002.163185,00003.274698,00002.661066,00002.551471,00002.680599,00003.191307,00002.794472,00002.546803,-00001.507401,-00000.212999,-00000.571628,-00000.117146,-00000.106702,-00000.088433
0000000014927,00002.616099,00002.331120,00002.160506,00003.280543,00002.661019,00002.548127,00002.679405,00003.190542,00002.792294,00002.544294,-00001.542133,-00000.220278,-00000.573049,-00000.117538,-00000.108657,-00000.088052
0000000014928,00002.612238,00002.325509,00002.158238,00003.285866,00002.660447,00002.544656,00002.677439,00003.189841,00002.789253,00002.542133,-00001.573485,-00000.227401,-00000.574785,-00000.118229,-00000.110427,-00000.087981
0000000014929,00002.608743,00002.320066,00002.156683,00003.290115,00002.660407,00002.541446,00002.676059,00003.189190,00002.785948,00002.540360,-00001.600150,-00000.233597,-00000.577084,-00000.118925,-00000.112454,-00000.088382
0000000014930,00002.605094,00002.315290,00002.154752,00003.295009,00002.659920,00002.538854,00002.674748,00003.188594,00002.783359,00002.538157,-00001.623212,-00000.239298,-00000.579650,-00000.119151,-00000.113960,-00000.088684
0000000014931,00002.601756,00002.310656,00002.152702,00003.298990,00002.659523,00002.536484,00002.673573,00003.188040,00002.780908,00002.536648,-00001.644823,-00000.244573,-00000.582333,-00000.119018,-00000.114234,-00000.089026
0000000014932,00002.598286,00002.305864,00002.149970,00003.302793,00002.658746,00002.533915,00002.672094,00003.186806,00002.778341,00002.534773,-00001.666270,-00000.249789,-00000.583429,-00000.118847,-00000.113340,-00000.088920
0000000014933,00002.595082,00002.301919,00002.147500,00003.306545,00002.658408,00002.531535,00002.670732,00003.185972,00002.776255,00002.533125,-00001.685756,-00000.255005,-00000.584261,-00000.119460,-00000.112848,-00000.088485
0000000014934,00002.592128,00002.297840,00002.145536,00003.309783,00002.658109,00002.529710,00002.669473,00003.186010,00002.775158,00002.532254,-00001.698934,-00000.259809,-00000.585557,-00000.120765,-00000.114263,-00000.088033
0000000014935,00002.589400,00002.294119,00002.143796,00003.312614,00002.657459,00002.528047,00002.668313,00003.185663,00002.774833,00002.531940,-00001.706816,-00000.263524,-00000.586629,-00000.121287,-00000.115295,-00000.087663
0000000014936,00002.586886,00002.291009,00002.142125,00003.315007,00002.657204,00002.526493,00002.667604,00003.185333,00002.774988,00002.531562,-00001.712593,-00000.266887,-00000.587732,-00000.120584,-00000.113960,-00000.087277
0000000014937,00002.584926,00002.287841,00002.140281,00003.317780,00002.656650,00002.525077,00002.666616,00003.184674,00002.775073,00002.530569,-00001.718214,-00000.270049,-00000.588644,-00000.119577,-00000.110849,-00000.086236
0000000014938,00002.582786,00002.285194,00002.138495,00003.319818,00002.656434,00002.523392,00002.666012,00003.184030,00002.774842,00002.529158,-00001.723495,-00000.272913,-00000.589946,-00000.118616,-00000.108261,-00000.085546
0000000014939,00002.580755,00002.282497,00002.136563,00003.321815,00002.655962,00002.522187,00002.664809,00003.183469,00002.773464,00002.527950,-00001.726829,-00000.275605,-00000.590723,-00000.118122,-00000.107063,-00000.085022
0000000014940,00002.579295,00002.279518,00002.135405,00003.323187,00002.655778,00002.521115,00002.663570,00003.183284,00002.771454,00002.527474,-00001.726971,-00000.277680,-00000.591468,-00000.117667,-00000.107400,-00000.084797
0000000014941,00002.577929,00002.277222,00002.134123,00003.324888,00002.655377,00002.520452,00002.662908,00003.182807,00002.771006,00002.527172,-00001.724367,-00000.279246,-00000.591766,-00000.117245,-00000.107831,-00000.084715
0000000014942,00002.576324,00002.275049,00002.132775,00003.326056,00002.654857,00002.520265,00002.662216,00003.182286,00002.771471,00002.526767,-00001.719046,-00000.280650,-00000.592038,-00000.116495,-00000.105579,-00000.083797
0000000014943,00002.575524,00002.272732,00002.132046,00003.327140,00002.654878,00002.520788,00002.662015,00003.182605,00002.771816,00002.526872,-00001.713928,-00000.283071,-00000.592292,-00000.115774,-00000.101955,-00000.082276
0000000014944,00002.574157,00002.270518,00002.130536,00003.328497,00002.654073,00002.520992,00002.661426,00003.181799,00002.772212,00002.526165,-00001.708309,-00000.285355,-00000.592524,-00000.115135,-00000.098949,-00000.080769
0000000014945,00002.573113,00002.268546,00002.129552,00003.329421,00002.653728,00002.522163,00002.661255,00003.181708,00002.772868,00002.525891,-00001.701412,-00000.287053,-00000.592377,-00000.114884,-00000.097315,-00000.079837
0000000014946,00002.572313,00002.266662,00002.128629,00003.330576,00002.653768,00002.523425,00002.661116,00003.181748,00002.773568,00002.525652,-00001.695178,-00000.288634,-00000.591849,-00000.114340,-00000.096570,-00000.079643
0000000014947,00002.571787,00002.264257,00002.127792,00003.331362,00002.653475,00002.524060,00002.660608,00003.181670,00002.773764,00002.525782,-00001.691846,-00000.290806,-00000.591724,-00000.114126,-00000.096268,-00000.079574
0000000014948,00002.571468,00002.261565,00002.127006,00003.331983,00002.653146,00002.524045,00002.660127,00003.181704,00002.773997,00002.525578,-00001.690530,-00000.293240,-00000.592362,-00000.114389,-00000.095996,-00000.078684
0000000014949,00002.570295,00002.259880,00002.125931,00003.332652,00002.652896,00002.523860,00002.660057,00003.181275,00002.774526,00002.525326,-00001.689145,-00000.296177,-00000.593344,-00000.114570,-00000.095739,-00000.077537
0000000014950,00002.569660,00002.258314,00002.125262,00003.333181,00002.652979,00002.524573,00002.660010,00003.181304,00002.774725,00002.525153,-00001.686210,-00000.298612,-00000.593525,-00000.113705,-00000.094419,-00000.076416
0000000014951,00002.569024,00002.256880,00002.125072,00003.333388,00002.653129,00002.525504,00002.659951,00003.181664,00002.774813,00002.524938,-00001.682854,-00000.300750,-00000.593273,-00000.112045,-00000.091661,-00000.076528
0000000014952,00002.568485,00002.255547,00002.124140,00003.333838,00002.652837,00002.526474,00002.659548,00003.181689,00002.774619,00002.524428,-00001.681082,-00000.303186,-00000.592338,-00000.110221,-00000.088361,-00000.077025
0000000014953,00002.568306,00002.254326,00002.123615,00003.334377,00002.652965,00002.527266,00002.659498,00003.182359,00002.774694,00002.524245,-00001.681127,-00000.305731,-00000.591398,-00000.109170,-00000.085287,-00000.077121
0000000014954,00002.568209,00002.253191,00002.123185,00003.335122,00002.653079,00002.528455,00002.659518,00003.183105,00002.774891,00002.524173,-00001.681795,-00000.308530,-00000.590602,-00000.108705,-00000.083203,-00000.077181
0000000014955,00002.568057,00002.252515,00002.122375,00003.335944,00002.652825,00002.529492,00002.659475,00003.183312,00002.775318,00002.523655,-00001.681471,-00000.310697,-00000.590164,-00000.108537,-00000.082037,-00000.077262
0000000014956,00002.567612,00002.251911,00002.122009,00003.336216,00002.652559,00002.529778,00002.659492,00003.183222,00002.775486,00002.523594,-00001.679862,-00000.312354,-00000.589487,-00000.108141,-00000.081714,-00000.077313
0000000014957,00002.567120,00002.251698,00002.121682,00003.336915,00002.652343,00002.530661,00002.659455,00003.183036,00002.775487,00002.523515,-00001.675596,-00000.312748,-00000.588752,-00000.106909,-00000.081085,-00000.077746
0000000014958,00002.566741,00002.251184,00002.121733,00003.337510,00002.652480,00002.531993,00002.659833,00003.183685,00002.775630,00002.523463,-00001.669873,-00000.312345,-00000.588175,-00000.105484,-00000.080084,-00000.078152
0000000014959,00002.566684,00002.250640,00002.122181,00003.337742,00002.652296,00002.533108,00002.659439,00003.183889,00002.775630,00002.523034,-00001.661887,-00000.311954,-00000.587186,-00000.104072,-00000.078823,-00000.078157
0000000014960,00002.566362,00002.250565,00002.122587,00003.338248,00002.652412,00002.534605,00002.659760,00003.184078,00002.776115,00002.522627,-00001.651936,-00000.311248,-00000.585970,-00000.102859,-00000.078697,-00000.078140
0000000014961,00002.566677,00002.250102,00002.125145,00003.338447,00002.652255,00002.536642,00002.660150,00003.184252,00002.776841,00002.522624,-00001.638245,-00000.309827,-00000.584402,-00000.101657,-00000.079074,-00000.078507
0000000014962,00002.567127,00002.249313,00002.128755,00003.338515,00002.651991,00002.538279,00002.659698,00003.184413,00002.776891,00002.522640,-00001.619253,-00000.307775,-00000.582279,-00000.100261,-00000.080055,-00000.078856
0000000014963,00002.568121,00002.249281,00002.132021,00003.339046,00002.651858,00002.541101,00002.660030,00003.185287,00002.777871,00002.523363,-00001.594900,-00000.304752,-00000.579856,-00000.098876,-00000.080014,-00000.079168
0000000014964,00002.568505,00002.249335,00002.134732,00003.339467,00002.651633,00002.543583,00002.660008,00003.185787,00002.779365,00002.523377,-00001.572564,-00000.303367,-00000.578048,-00000.098050,-00000.078309,-00000.079465
0000000014965,00002.568988,00002.249308,00002.136787,00003.339193,00002.651883,00002.545260,00002.660291,00003.186168,00002.779837,00002.523267,-00001.556186,-00000.304784,-00000.576348,-00000.098322,-00000.076460,-00000.079368
0000000014966,00002.568952,00002.249354,00002.136193,00003.339914,00002.651692,00002.547011,00002.660635,00003.186231,00002.780746,00002.523279,-00001.545879,-00000.307959,-00000.573720,-00000.098345,-00000.076823,-00000.079620
0000000014967,00002.569363,00002.249331,00002.135402,00003.340407,00002.651904,00002.548801,00002.660875,00003.186555,00002.781510,00002.523185,-00001.540643,-00000.312431,-00000.571185,-00000.098576,-00000.080328,-00000.080264
0000000014968,00002.569695,00002.249370,00002.134534,00003.340658,00002.651741,00002.550654,00002.661168,00003.186972,00002.782284,00002.523195,-00001.537673,-00000.316948,-00000.569674,-00000.099321,-00000.084627,-00000.081204
0000000014969,00002.569683,00002.248988,00002.133498,00003.340352,00002.651922,00002.551453,00002.661010,00003.186885,00002.782209,00002.523115,-00001.538295,-00000.321479,-00000.569329,-00000.100243,-00000.087974,-00000.082115
0000000014970,00002.569603,00002.249021,00002.132033,00003.340929,00002.652146,00002.552304,00002.661260,00003.186877,00002.782505,00002.523124,-00001.543023,-00000.325325,-00000.569494,-00000.101240,-00000.090183,-00000.082190
0000000014971,00002.569229,00002.248696,00002.130426,00003.342119,00002.652300,00002.552621,00002.661488,00003.186803,00002.782442,00002.523056,-00001.552622,-00000.328820,-00000.569564,-00000.102026,-00000.092669,-00000.082602
0000000014972,00002.569524,00002.247999,00002.128815,00003.343336,00002.652128,00002.553346,00002.661337,00003.186796,00002.782331,00002.523063,-00001.565353,-00000.332094,-00000.569341,-00000.102512,-00000.096001,-00000.083391
0000000014973,00002.569569,00002.246996,00002.126722,00003.344712,00002.651896,00002.553979,00002.661169,00003.186733,00002.782277,00002.522280,-00001.580418,-00000.335069,-00000.569038,-00000.103180,-00000.098480,-00000.083742
0000000014974,00002.569457,00002.246040,00002.124625,00003.345748,00002.651387,00002.553508,00002.661041,00003.186001,00002.781819,00002.520835,-00001.597061,-00000.338219,-00000.569574,-00000.104319,-00000.100591,-00000.084052
0000000014975,00002.569132,00002.244460,00002.122843,00003.346557,00002.650826,00002.552958,00002.660172,00003.185585,00002.781048,00002.519805,-00001.614240,-00000.341114,-00000.570404,-00000.105614,-00000.102338,-00000.083988
0000000014976,00002.569037,00002.242921,00002.121784,00003.347801,00002.651119,00002.552557,00002.660063,00003.185325,00002.780296,00002.519301,-00001.632399,-00000.343796,-00000.571586,-00000.106584,-00000.104861,-00000.083888
0000000014977,00002.568397,00002.241214,00002.120266,00003.348852,00002.651005,00002.551727,00002.659323,00003.184608,00002.779276,00002.518424,-00001.649562,-00000.345898,-00000.572292,-00000.106598,-00000.107800,-00000.083834
0000000014978,00002.567954,00002.239540,00002.119002,00003.350274,00002.651253,00002.551385,00002.659230,00003.184023,00002.778998,00002.517632,-00001.665384,-00000.347092,-00000.572210,-00000.105972,-00000.109584,-00000.083023
0000000014979,00002.567409,00002.237724,00002.117710,00003.351532,00002.651519,00002.551041,00002.659326,00003.183776,00002.778856,00002.517248,-00001.681083,-00000.348156,-00000.571723,-00000.105621,-00000.110635,-00000.082251
0000000014980,00002.566306,00002.235574,00002.116271,00003.353106,00002.651005,00002.550387,00002.658884,00003.183278,00002.778257,00002.516574,-00001.697817,-00000.350261,-00000.570927,-00000.105452,-00000.110703,-00000.081924
0000000014981,00002.565480,00002.233302,00002.115172,00003.354539,00002.650868,00002.549368,00002.658240,00003.182705,00002.777047,00002.515885,-00001.715536,-00000.352981,-00000.569787,-00000.105153,-00000.110509,-00000.081993
0000000014982,00002.564540,00002.231109,00002.113946,00003.357693,00002.650431,00002.548087,00002.657501,00003.181919,00002.776175,00002.515311,-00001.732321,-00000.355499,-00000.568385,-00000.104645,-00000.109842,-00000.081352
0000000014983,00002.563474,00002.229175,00002.113010,00003.359276,00002.649952,00002.547582,00002.656953,00003.181430,00002.775870,00002.515087,-00001.746317,-00000.357089,-00000.566688,-00000.104028,-00000.108588,-00000.080321
0000000014984,00002.563037,00002.227308,00002.112693,00003.361960,00002.649942,00002.547216,00002.656324,00003.181124,00002.775490,00002.515323,-00001.756978,-00000.357781,-00000.564769,-00000.103234,-00000.106206,-00000.079413
0000000014985,00002.562493,00002.225661,00002.112259,00003.364034,00002.649897,00002.546061,00002.656220,00003.180708,00002.775231,00002.515496,-00001.767441,-00000.358408,-00000.562962,-00000.102345,-00000.102962,-00000.078536
0000000014986,00002.562484,00002.223346,00002.111626,00003.365956,00002.649889,00002.544299,00002.655685,00003.180810,00002.774908,00002.515334,-00001.778331,-00000.358998,-00000.560965,-00000.101669,-00000.099846,-00000.077400
0000000014987,00002.562020,00002.220856,00002.110893,00003.366270,00002.649851,00002.542227,00002.654871,00003.179730,00002.772873,00002.515118,-00001.788689,-00000.359532,-00000.559790,-00000.101275,-00000.097084,-00000.076290
0000000014988,00002.561287,00002.218523,00002.110355,00003.366093,00002.649844,00002.540364,00002.654777,00003.178729,00002.771147,00002.515344,-00001.797960,-00000.360034,-00000.559178,-00000.101425,-00000.095157,-00000.075323
0000000014989,00002.560892,00002.216766,00002.109731,00003.366723,00002.649811,00002.538963,00002.654447,00003.178172,00002.769415,00002.515522,-00001.806053,-00000.360489,-00000.558540,-00000.101453,-00000.093895,-00000.074378
0000000014990,00002.560267,00002.214417,00002.108910,00003.366935,00002.649442,00002.537377,00002.654005,00003.177320,00002.767582,00002.515714,-00001.814670,-00000.360916,-00000.557294,-00000.101218,-00000.091891,-00000.073918
0000000014991,00002.559206,00002.212558,00002.108016,00003.369285,00002.649414,00002.535822,00002.654087,00003.176121,00002.765745,00002.515504,-00001.824099,-00000.362028,-00000.555662,-00000.100879,-00000.089002,-00000.073114
0000000014992,00002.558312,00002.210921,00002.106954,00003.370917,00002.649463,00002.534109,00002.653711,00003.175032,00002.763459,00002.515305,-00001.835789,-00000.364206,-00000.554964,-00000.101041,-00000.086208,-00000.071633
0000000014993,00002.557408,00002.208250,00002.105830,00003.373280,00002.649440,00002.532784,00002.653417,00003.174737,00002.761532,00002.515125,-00001.848532,-00000.366604,-00000.554664,-00000.101841,-00000.084837,-00000.069860
0000000014994,00002.556646,00002.205043,00002.104926,00003.375395,00002.649481,00002.531689,00002.652734,00003.174536,00002.759224,00002.515318,-00001.861023,-00000.369184,-00000.553707,-00000.102705,-00000.084636,-00000.068600
0000000014995,00002.555152,00002.202044,00002.103244,00003.377044,00002.649098,00002.529836,00002.652485,00003.173196,00002.757221,00002.515528,-00001.872234,-00000.371588,-00000.552363,-00000.103023,-00000.084557,-00000.068179
0000000014996,00002.554141,00002.199676,00002.102112,00003.378844,00002.649134,00002.528541,00002.652266,00003.172299,00002.755255,00002.515330,-00001.881416,-00000.373421,-00000.551185,-00000.103033,-00000.084022,-00000.067832
0000000014997,00002.553231,00002.196760,00002.101043,00003.380248,00002.648808,00002.527326,00002.651328,00003.171521,00002.752824,00002.515146,-00001.889872,-00000.375106,-00000.549678,-00000.102941,-00000.082504,-00000.067474
0000000014998,00002.552370,00002.193656,00002.100078,00003.381418,00002.648112,00002.526223,00002.650416,00003.170758,00002.750788,00002.514977,-00001.898051,-00000.376666,-00000.548313,-00000.103312,-00000.080598,-00000.067178
0000000014999,00002.551233,00002.191174,00002.098806,00003.382613,00002.647835,00002.524827,00002.649980,00003.169733,00002.749082,00002.514458,-00001.905612,-00000.378100,-00000.546667,-00000.103234,-00000.078943,-00000.066510
0000000015000,00002.550863,00002.188531,00002.097985,00003.383972,00002.647968,00002.523888,00002.649567,00003.169446,00002.747349,00002.514677,-00001.912576,-00000.379428,-00000.545142,-00000.102824,-00000.077320,-00000.066258
0000000015001,00002.550258,00002.186055,00002.097264,00003.384989,00002.647732,00002.523062,00002.648833,00003.168936,00002.745896,00002.514598,-00001.918650,-00000.380649,-00000.543015,-00000.102032,-00000.075548,-00000.066415
0000000015002,00002.549580,00002.184168,00002.096928,00003.385783,00002.648209,00002.522263,00002.648844,00003.168692,00002.744783,00002.514784,-00001.923126,-00000.381780,-00000.540991,-00000.101683,-00000.073804,-00000.066201
0000000015003,00002.549065,00002.182423,00002.096314,00003.386286,00002.648370,00002.521197,00002.648582,00003.168258,00002.743547,00002.514716,-00001.925758,-00000.382456,-00000.539181,-00000.101371,-00000.072296,-00000.065972
0000000015004,00002.548488,00002.181543,00002.095303,00003.387325,00002.648050,00002.520516,00002.648228,00003.167687,00002.742962,00002.514875,-00001.927392,-00000.383056,-00000.537458,-00000.101074,-00000.070811,-00000.065790
0000000015005,00002.547686,00002.180420,00002.094780,00003.388479,00002.648188,00002.519971,00002.648368,00003.167318,00002.741909,00002.515180,-00001.929632,-00000.383632,-00000.535917,-00000.100446,-00000.069164,-00000.065595
0000000015006,00002.546832,00002.179307,00002.093919,00003.389363,00002.648279,00002.519392,00002.648430,00003.166832,00002.741412,00002.515316,-00001.932112,-00000.384505,-00000.533724,-00000.099831,-00000.067537,-00000.065439
0000000015007,00002.546150,00002.178352,00002.093475,00003.389983,00002.648396,00002.518928,00002.648186,00003.166517,00002.740516,00002.515575,-00001.934018,-00000.385358,-00000.532050,-00000.099296,-00000.065772,-00000.065273
0000000015008,00002.545786,00002.177404,00002.093104,00003.391098,00002.648473,00002.519161,00002.648239,00003.166103,00002.740092,00002.515690,-00001.934315,-00000.385739,-00000.530909,-00000.099135,-00000.064387,-00000.065141
0000000015009,00002.545568,00002.176954,00002.093088,00003.391626,00002.648935,00002.519492,00002.648394,00003.165836,00002.740055,00002.515912,-00001.933762,-00000.386102,-00000.530209,-00000.099042,-00000.063611,-00000.065363
0000000015010,00002.545258,00002.176147,00002.093136,00003.392212,00002.649364,00002.520052,00002.648076,00003.165484,00002.739694,00002.516372,-00001.932926,-00000.386789,-00000.529601,-00000.098905,-00000.062432,-00000.065976
0000000015011,00002.545072,00002.175401,00002.092760,00003.393024,00002.649394,00002.521060,00002.647845,00003.165618,00002.740388,00002.516561,-00001.932455,-00000.388187,-00000.529004,-00000.098827,-00000.061408,-00000.066890
0000000015012,00002.544445,00002.175440,00002.092437,00003.393887,00002.649396,00002.521537,00002.647937,00003.165319,00002.740806,00002.516590,-00001.933195,-00000.389860,-00000.528487,-00000.098710,-00000.060404,-00000.067774
0000000015013,00002.543925,00002.174804,00002.092117,00003.394215,00002.649785,00002.521669,00002.648467,00003.165433,00002.741034,00002.516751,-00001.934245,-00000.391776,-00000.527979,-00000.099368,-00000.060258,-00000.068553
0000000015014,00002.544117,00002.174475,00002.092206,00003.394586,00002.650150,00002.521712,00002.648545,00003.165904,00002.740665,00002.516776,-00001.935963,-00000.393926,-00000.527538,-00000.100357,-00000.060855,-00000.068943
0000000015015,00002.544036,00002.175385,00002.091933,00003.394866,00002.650481,00002.521462,00002.648633,00003.165276,00002.740133,00002.516912,-00001.937220,-00000.396282,-00000.526744,-00000.100918,-00000.061456,-00000.069243
0000000015016,00002.543474,00002.176556,00002.091645,00003.394819,00002.651154,00002.521862,00002.649062,00003.164951,00002.739819,00002.516933,-00001.939045,-00000.398112,-00000.525280,-00000.101034,-00000.061601,-00000.069938
0000000015017,00002.543405,00002.177331,00002.091776,00003.395057,00002.651436,00002.522374,00002.648774,00003.165142,00002.739729,00002.517050,-00001.941566,-00000.399755,-00000.523878,-00000.101149,-00000.061024,-00000.070193
0000000015018,00002.542927,00002.177965,00002.091531,00003.395380,00002.651646,00002.522352,00002.648777,00003.164865,00002.739099,00002.516705,-00001.944572,-00000.402039,-00000.522269,-00000.101248,-00000.060785,-00000.070785
0000000015019,00002.542824,00002.179526,00002.091071,00003.395495,00002.652065,00002.523131,00002.648897,00003.164067,00002.738486,00002.516148,-00001.947825,-00000.405744,-00000.521157,-00000.100341,-00000.059002,-00000.072231
0000000015020,00002.543462,00002.180493,00002.091043,00003.395593,00002.653510,00002.524158,00002.648637,00003.164112,00002.737964,00002.516036,-00001.953497,-00000.410350,-00000.519847,-00000.098844,-00000.056033,-00000.073100
0000000015021,00002.543366,00002.180925,00002.091223,00003.395377,00002.654719,00002.524474,00002.648776,00003.164013,00002.737962,00002.516208,-00001.957213,-00000.412607,-00000.519608,-00000.097980,-00000.054380,-00000.073837
0000000015022,00002.543560,00002.179870,00002.091172,00003.396218,00002.656132,00002.525664,00002.648896,00003.164067,00002.737881,00002.516450,-00001.967656,-00000.418006,-00000.519617,-00000.097196,-00000.052461,-00000.075192
0000000015023,00002.544089,00002.177521,00002.091128,00003.398385,00002.657698,00002.526314,00002.648998,00003.163750,00002.737086,00002.516656,-00001.980538,-00000.423328,-00000.519988,-00000.095441,-00000.049739,-00000.075258
0000000015024,00002.544335,00002.175897,00002.090980,00003.399219,00002.658602,00002.526356,00002.648637,00003.163950,00002.736311,00002.516726,-00001.987640,-00000.426403,-00000.520551,-00000.094834,-00000.047754,-00000.074388
0000000015025,00002.544176,00002.174795,00002.090728,00003.400592,00002.659394,00002.526505,00002.649085,00003.164206,00002.736047,00002.516832,-00001.995494,-00000.430398,-00000.521755,-00000.094672,-00000.046334,-00000.073500
0000000015026,00002.543887,00002.172838,00002.090025,00003.403560,00002.661200,00002.526667,00002.649522,00003.163868,00002.735525,00002.516981,-00002.011492,-00000.440045,-00000.523258,-00000.094018,-00000.045612,-00000.072728
0000000015027,00002.544120,00002.171607,00002.089554,00003.405145,00002.661439,00002.527423,00002.649515,00003.164067,00002.734909,00002.517032,-00002.018129,-00000.444489,-00000.523196,-00000.093162,-00000.043957,-00000.072770
0000000015028,00002.544928,00002.169398,00002.089388,00003.406710,00002.662578,00002.528174,00002.649525,00003.163750,00002.733830,00002.517514,-00002.025682,-00000.452041,-00000.522672,-00000.090918,-00000.039960,-00000.072107
0000000015029,00002.546341,00002.168606,00002.089973,00003.407317,00002.663911,00002.529902,00002.649171,00003.164205,00002.732912,00002.517925,-00002.022679,-00000.455204,-00000.521500,-00000.088645,-00000.036195,-00000.070455
0000000015030,00002.546367,00002.168073,00002.089826,00003.404634,00002.664690,00002.530861,00002.649183,00003.164062,00002.732874,00002.517935,-00002.016967,-00000.454786,-00000.520070,-00000.086722,-00000.033810,-00000.069177
0000000015031,00002.546456,00002.167206,00002.089745,00003.402029,00002.665409,00002.531736,00002.649233,00003.164231,00002.732494,00002.517912,-00002.011052,-00000.453906,-00000.517962,-00000.084896,-00000.031538,-00000.067597
0000000015032,00002.546554,00002.165652,00002.089913,00003.396801,00002.666684,00002.532571,00002.649285,00003.163889,00002.731049,00002.517175,-00002.000066,-00000.450625,-00000.512412,-00000.082067,-00000.029751,-00000.063712
0000000015033,00002.546572,00002.164594,00002.089753,00003.394548,00002.667248,00002.532957,00002.649656,00003.164148,00002.730040,00002.517236,-00001.995618,-00000.449395,-00000.509777,-00000.081036,-00000.029729,-00000.061444
0000000015034,00002.546290,00002.163065,00002.088106,00003.391159,00002.667523,00002.533611,00002.649646,00003.163819,00002.728597,00002.516600,-00001.989104,-00000.448236,-00000.505081,-00000.078419,-00000.029662,-00000.057386
0000000015035,00002.546036,00002.161804,00002.087438,00003.389651,00002.667658,00002.533888,00002.649676,00003.163297,00002.727791,00002.516323,-00001.986582,-00000.447885,-00000.502992,-00000.077609,-00000.029983,-00000.056302
0000000015036,00002.545834,00002.159602,00002.086136,00003.386627,00002.667147,00002.534404,00002.649663,00003.163457,00002.726320,00002.515460,-00001.977783,-00000.446950,-00000.500030,-00000.078041,-00000.032055,-00000.055911
0000000015037,00002.546387,00002.157727,00002.085027,00003.383690,00002.666712,00002.535205,00002.649288,00003.163957,00002.724705,00002.514362,-00001.969931,-00000.446154,-00000.496783,-00000.078409,-00000.032730,-00000.054853
0000000015038,00002.546026,00002.156908,00002.084541,00003.382066,00002.666885,00002.535037,00002.649259,00003.163498,00002.724136,00002.513907,-00001.967785,-00000.447098,-00000.496079,-00000.078741,-00000.032836,-00000.054767
0000000015039,00002.545825,00002.155434,00002.084032,00003.379081,00002.668303,00002.533931,00002.649670,00003.163628,00002.722483,00002.514129,-00001.965772,-00000.450634,-00000.495233,-00000.081544,-00000.035572,-00000.054242
0000000015040,00002.545970,00002.155497,00002.084005,00003.377355,00002.669130,00002.533782,00002.650041,00003.163817,00002.722159,00002.514029,-00001.963183,-00000.452396,-00000.495440,-00000.083179,-00000.037731,-00000.054583
0000000015041,00002.546502,00002.156047,00002.083576,00003.374708,00002.670577,00002.534314,00002.650336,00003.163900,00002.721163,00002.514233,-00001.958227,-00000.456957,-00000.495778,-00000.085322,-00000.039739,-00000.056624
0000000015042,00002.546489,00002.157248,00002.083176,00003.373760,00002.671210,00002.534565,00002.650318,00003.163780,00002.720912,00002.513752,-00001.955830,-00000.459726,-00000.496641,-00000.086633,-00000.040448,-00000.057498
0000000015043,00002.547307,00002.160802,00002.083233,00003.371648,00002.671985,00002.535342,00002.650209,00003.164231,00002.719738,00002.513634,-00001.949428,-00000.465374,-00000.498252,-00000.088988,-00000.042414,-00000.058743
0000000015044,00002.547705,00002.162340,00002.083262,00003.370900,00002.672132,00002.536239,00002.649766,00003.164393,00002.719229,00002.513936,-00001.945499,-00000.467505,-00000.498634,-00000.089680,-00000.042904,-00000.059117
0000000015045,00002.547255,00002.165499,00002.082944,00003.369213,00002.672770,00002.537856,00002.650102,00003.164390,00002.718669,00002.514153,-00001.937367,-00000.472360,-00000.501037,-00000.091219,-00000.043780,-00000.060121
0000000015046,00002.547254,00002.166349,00002.083014,00003.368628,00002.673260,00002.538583,00002.650091,00003.164996,00002.718197,00002.514482,-00001.933602,-00000.474693,-00000.502658,-00000.092082,-00000.044897,-00000.061123
0000000015047,00002.548322,00002.168187,00002.083458,00003.366916,00002.673730,00002.539852,00002.649653,00003.165266,00002.717427,00002.514256,-00001.925426,-00000.478842,-00000.504462,-00000.091813,-00000.046202,-00000.063281
0000000015048,00002.548559,00002.169499,00002.083422,00003.366192,00002.674084,00002.540768,00002.649959,00003.165366,00002.717476,00002.514133,-00001.921087,-00000.480319,-00000.505078,-00000.091885,-00000.046396,-00000.064808
0000000015049,00002.549433,00002.171957,00002.083805,00003.365205,00002.674432,00002.542437,00002.650629,00003.165219,00002.717176,00002.513958,-00001.911507,-00000.482906,-00000.507248,-00000.093096,-00000.048204,-00000.066781
0000000015050,00002.549641,00002.173879,00002.084574,00003.364527,00002.675197,00002.543557,00002.651394,00003.165330,00002.717248,00002.514261,-00001.905554,-00000.483674,-00000.508031,-00000.093820,-00000.049401,-00000.067299
0000000015051,00002.550354,00002.176411,00002.086237,00003.363062,00002.675379,00002.546263,00002.652213,00003.165188,00002.717344,00002.514793,-00001.892116,-00000.485036,-00000.508673,-00000.093292,-00000.049674,-00000.067087
0000000015052,00002.550500,00002.178571,00002.086787,00003.362669,00002.675597,00002.547499,00002.652665,00003.164986,00002.717737,00002.515026,-00001.884721,-00000.486001,-00000.509324,-00000.093245,-00000.049239,-00000.066786
0000000015053,00002.551085,00002.183308,00002.088121,00003.361481,00002.675720,00002.549982,00002.652933,00003.165258,00002.718487,00002.516169,-00001.869664,-00000.487742,-00000.510862,-00000.093528,-00000.050625,-00000.068464
0000000015054,00002.551477,00002.185829,00002.088912,00003.361062,00002.676029,00002.551198,00002.653142,00003.165689,00002.718840,00002.516719,-00001.862770,-00000.488525,-00000.510975,-00000.093441,-00000.051609,-00000.069964
0000000015055,00002.551554,00002.190575,00002.089930,00003.360476,00002.676087,00002.553493,00002.654064,00003.165857,00002.720151,00002.517611,-00001.851704,-00000.490617,-00000.511179,-00000.093695,-00000.053005,-00000.071533
0000000015056,00002.552007,00002.192842,00002.090532,00003.360279,00002.676222,00002.554928,00002.654026,00003.166721,00002.720702,00002.518334,-00001.845881,-00000.491938,-00000.512052,-00000.094392,-00000.054151,-00000.071673
0000000015057,00002.552731,00002.197271,00002.091672,00003.359083,00002.676977,00002.556669,00002.654817,00003.167823,00002.721011,00002.520074,-00001.832973,-00000.492797,-00000.512459,-00000.095230,-00000.056620,-00000.071536
0000000015058,00002.553018,00002.199452,00002.092206,00003.358879,00002.677160,00002.557782,00002.655208,00003.168444,00002.721545,00002.520306,-00001.826713,-00000.492771,-00000.511649,-00000.095023,-00000.056802,-00000.072044
0000000015059,00002.553229,00002.203623,00002.093097,00003.357891,00002.677775,00002.559098,00002.655460,00003.169290,00002.722817,00002.521027,-00001.813389,-00000.493869,-00000.511390,-00000.095404,-00000.056337,-00000.072940
0000000015060,00002.553508,00002.205648,00002.093831,00003.357870,00002.677859,00002.560083,00002.655754,00003.170232,00002.723929,00002.521836,-00001.806368,-00000.494204,-00000.511865,-00000.095988,-00000.056843,-00000.073336
0000000015061,00002.553408,00002.207900,00002.094581,00003.357413,00002.677574,00002.560944,00002.656038,00003.170373,00002.725351,00002.522729,-00001.799144,-00000.494440,-00000.511533,-00000.096092,-00000.057392,-00000.073703
0000000015062,00002.553923,00002.212992,00002.098747,00003.356643,00002.678128,00002.562515,00002.656892,00003.171658,00002.728596,00002.524179,-00001.782301,-00000.494201,-00000.511292,-00000.095589,-00000.056477,-00000.073990
0000000015063,00002.553763,00002.215023,00002.101764,00003.355956,00002.678497,00002.563229,00002.657414,00003.172032,00002.730799,00002.524765,-00001.773909,-00000.494135,-00000.511744,-00000.096120,-00000.056589,-00000.073914
0000000015064,00002.554225,00002.218693,00002.107401,00003.355040,00002.678552,00002.564824,00002.657701,00003.174158,00002.733959,00002.526637,-00001.759367,-00000.495393,-00000.512923,-00000.097064,-00000.059058,-00000.073444
0000000015065,00002.554256,00002.221817,00002.112200,00003.354261,00002.679323,00002.565818,00002.658308,00003.175243,00002.736287,00002.528594,-00001.749528,-00000.495737,-00000.510661,-00000.096780,-00000.061522,-00000.073769
0000000015066,00002.554427,00002.223224,00002.113381,00003.354075,00002.679706,00002.566224,00002.658457,00003.175665,00002.737536,00002.528909,-00001.746691,-00000.495855,-00000.509638,-00000.096465,-00000.061358,-00000.074510
0000000015067,00002.554283,00002.224114,00002.112295,00003.354322,00002.679617,00002.566302,00002.658462,00003.175803,00002.738995,00002.528808,-00001.745505,-00000.495668,-00000.509461,-00000.096538,-00000.061081,-00000.074409
0000000015068,00002.553942,00002.225707,00002.110198,00003.354375,00002.679505,00002.565988,00002.658593,00003.175555,00002.739485,00002.528265,-00001.744982,-00000.494884,-00000.510253,-00000.097057,-00000.061431,-00000.073866
0000000015069,00002.553757,00002.225692,00002.109201,00003.354186,00002.679474,00002.565974,00002.658701,00003.175969,00002.739410,00002.528185,-00001.744363,-00000.493934,-00000.510385,-00000.096721,-00000.061258,-00000.073785
0000000015070,00002.553132,00002.226324,00002.107565,00003.353896,00002.679383,00002.565709,00002.658433,00003.175696,00002.738388,00002.527372,-00001.741833,-00000.493045,-00000.511040,-00000.097213,-00000.060493,-00000.073697
0000000015071,00002.552237,00002.226863,00002.106172,00003.353287,00002.679305,00002.565121,00002.658569,00003.175464,00002.737517,00002.527405,-00001.738229,-00000.493376,-00000.513411,-00000.098358,-00000.060930,-00000.073622
0000000015072,00002.551898,00002.226659,00002.105601,00003.352830,00002.679258,00002.564938,00002.658209,00003.175274,00002.736724,00002.527074,-00001.736641,-00000.493772,-00000.513743,-00000.097925,-00000.060375,-00000.073608
0000000015073,00002.551550,00002.227147,00002.104138,00003.353105,00002.679562,00002.564464,00002.658377,00003.175104,00002.736101,00002.526789,-00001.733808,-00000.495446,-00000.514625,-00000.097512,-00000.060104,-00000.073909
0000000015074,00002.551190,00002.227402,00002.103305,00003.353360,00002.679183,00002.564193,00002.658473,00003.175151,00002.735837,00002.526840,-00001.733274,-00000.496693,-00000.516277,-00000.097529,-00000.060747,-00000.073867
0000000015075,00002.550947,00002.227418,00002.102183,00003.353556,00002.678410,00002.563468,00002.657877,00003.175000,00002.734984,00002.526589,-00001.732031,-00000.501560,-00000.520409,-00000.097175,-00000.061146,-00000.073766
0000000015076,00002.551000,00002.227246,00002.101831,00003.354263,00002.678026,00002.563718,00002.657609,00003.175508,00002.734811,00002.526648,-00001.731669,-00000.505017,-00000.523563,-00000.096808,-00000.060913,-00000.073712
0000000015077,00002.550422,00002.227284,00002.100928,00003.354687,00002.676699,00002.563063,00002.656778,00003.176030,00002.734110,00002.526064,-00001.729576,-00000.512638,-00000.530240,-00000.097288,-00000.061288,-00000.073272
0000000015078,00002.550509,00002.227496,00002.100723,00003.354482,00002.676156,00002.562942,00002.656628,00003.176776,00002.733638,00002.526195,-00001.726806,-00000.516365,-00000.532658,-00000.097343,-00000.061884,-00000.073246
0000000015079,00002.550367,00002.228223,00002.099985,00003.354511,00002.675470,00002.562402,00002.656307,00003.177835,00002.734926,00002.526403,-00001.722897,-00000.523750,-00000.535806,-00000.095929,-00000.060663,-00000.072875
0000000015080,00002.550129,00002.227963,00002.099813,00003.353958,00002.675279,00002.561976,00002.656141,00003.178140,00002.734765,00002.526069,-00001.722463,-00000.528168,-00000.537351,-00000.095665,-00000.060065,-00000.072525
0000000015081,00002.549681,00002.228983,00002.099573,00003.353702,00002.675086,00002.561943,00002.656254,00003.178633,00002.734796,00002.526296,-00001.721014,-00000.536700,-00000.541615,-00000.095588,-00000.061654,-00000.070447
0000000015082,00002.549834,00002.229476,00002.099855,00003.353630,00002.675060,00002.562277,00002.656162,00003.179556,00002.734631,00002.527148,-00001.719260,-00000.540089,-00000.544287,-00000.094626,-00000.061480,-00000.069188
0000000015083,00002.549793,00002.230634,00002.099972,00003.353060,00002.674537,00002.562199,00002.656272,00003.180201,00002.735770,00002.527215,-00001.717199,-00000.546123,-00000.549333,-00000.092890,-00000.059231,-00000.067244
0000000015084,00002.549646,00002.231263,00002.099503,00003.352936,00002.674473,00002.561837,00002.656070,00003.180390,00002.736969,00002.527271,-00001.716459,-00000.548440,-00000.552472,-00000.092835,-00000.058786,-00000.066556
0000000015085,00002.549995,00002.232155,00002.099672,00003.353195,00002.674400,00002.561824,00002.656194,00003.180910,00002.738123,00002.529134,-00001.715177,-00000.553232,-00000.557390,-00000.092091,-00000.059840,-00000.066454
0000000015086,00002.551018,00002.233640,00002.100904,00003.353415,00002.674338,00002.562539,00002.655937,00003.182442,00002.740921,00002.532170,-00001.714448,-00000.557674,-00000.560851,-00000.091458,-00000.060737,-00000.067093
0000000015087,00002.551044,00002.234571,00002.103538,00003.353725,00002.674324,00002.562437,00002.656251,00003.182287,00002.742987,00002.533314,-00001.714700,-00000.560542,-00000.563158,-00000.091941,-00000.060933,-00000.067174
0000000015088,00002.551911,00002.236060,00002.113265,00003.353503,00002.674636,00002.563423,00002.656348,00003.183251,00002.746512,00002.536454,-00001.711503,-00000.564623,-00000.566849,-00000.092418,-00000.061305,-00000.066617
0000000015089,00002.551958,00002.237016,00002.117837,00003.353037,00002.674912,00002.563720,00002.656929,00003.183567,00002.748432,00002.538407,-00001.707803,-00000.565910,-00000.567903,-00000.092058,-00000.061117,-00000.066395
0000000015090,00002.552689,00002.240318,00002.125438,00003.352555,00002.675136,00002.564516,00002.657650,00003.183978,00002.751873,00002.540790,-00001.699827,-00000.569192,-00000.570889,-00000.091792,-00000.059647,-00000.066317
0000000015091,00002.553674,00002.243854,00002.132271,00003.351782,00002.675690,00002.565193,00002.658628,00003.185054,00002.754802,00002.543544,-00001.693399,-00000.573075,-00000.574520,-00000.093017,-00000.061299,-00000.065889
0000000015092,00002.554221,00002.245903,00002.135221,00003.351458,00002.675946,00002.565270,00002.658747,00003.185466,00002.755803,00002.544901,-00001.690735,-00000.574751,-00000.575762,-00000.093402,-00000.063716,-00000.066024
0000000015093,00002.554875,00002.247591,00002.138451,00003.351124,00002.676524,00002.565407,00002.659097,00003.186332,00002.756570,00002.546252,-00001.688652,-00000.576380,-00000.576522,-00000.093697,-00000.065970,-00000.066612
0000000015094,00002.555898,00002.250409,00002.143349,00003.349838,00002.677598,00002.565589,00002.659496,00003.187058,00002.758076,00002.548194,-00001.687151,-00000.580282,-00000.577863,-00000.095002,-00000.069946,-00000.067228
0000000015095,00002.555568,00002.251894,00002.145124,00003.349294,00002.677729,00002.565282,00002.659891,00003.186994,00002.759163,00002.548815,-00001.687236,-00000.582169,-00000.578092,-00000.095589,-00000.071698,-00000.066909
0000000015096,00002.556125,00002.254434,00002.148667,00003.349369,00002.677897,00002.565846,00002.660173,00003.187258,00002.760646,00002.550013,-00001.689573,-00000.584122,-00000.577386,-00000.095887,-00000.074460,-00000.066755
0000000015097,00002.556220,00002.255521,00002.150088,00003.349518,00002.677945,00002.565930,00002.660435,00003.187221,00002.761428,00002.550221,-00001.690267,-00000.584255,-00000.576874,-00000.095660,-00000.075125,-00000.066909
0000000015098,00002.556680,00002.257523,00002.152893,00003.349196,00002.678082,00002.566398,00002.660998,00003.187452,00002.763300,00002.551210,-00001.689977,-00000.585172,-00000.577800,-00000.095947,-00000.075200,-00000.067118
0000000015099,00002.557003,00002.258439,00002.154614,00003.349487,00002.678525,00002.566734,00002.661288,00003.187675,00002.764017,00002.551956,-00001.689791,-00000.585910,-00000.578396,-00000.095322,-00000.074675,-00000.067184
0000000015100,00002.556621,00002.260006,00002.156746,00003.349896,00002.678575,00002.567082,00002.661361,00003.187838,00002.765140,00002.552687,-00001.691023,-00000.587307,-00000.576920,-00000.093482,-00000.073003,-00000.067352
0000000015101,00002.557096,00002.260314,00002.157985,00003.349671,00002.678605,00002.567134,00002.661160,00003.188178,00002.765577,00002.553078,-00001.691589,-00000.587961,-00000.576103,-00000.093042,-00000.072633,-00000.067084
0000000015102,00002.557426,00002.261603,00002.159615,00003.349689,00002.679006,00002.567059,00002.661253,00003.188266,00002.766831,00002.553642,-00001.690377,-00000.588327,-00000.573879,-00000.092630,-00000.071628,-00000.066179
0000000015103,00002.557308,00002.262168,00002.160414,00003.349559,00002.679689,00002.566958,00002.661894,00003.188404,00002.767274,00002.554202,-00001.688356,-00000.588111,-00000.572523,-00000.091873,-00000.070987,-00000.065548
0000000015104,00002.557606,00002.262093,00002.162046,00003.349232,00002.680291,00002.567272,00002.661878,00003.188459,00002.767550,00002.553874,-00001.685811,-00000.588092,-00000.569380,-00000.090909,-00000.068775,-00000.064508
0000000015105,00002.557945,00002.261874,00002.162440,00003.349047,00002.680202,00002.567250,00002.661654,00003.188714,00002.767828,00002.553752,-00001.684853,-00000.588286,-00000.568359,-00000.091054,-00000.069480,-00000.064080
0000000015106,00002.557860,00002.261666,00002.162710,00003.348953,00002.680079,00002.567177,00002.661864,00003.188505,00002.768148,00002.553594,-00001.684007,-00000.588076,-00000.567067,-00000.091540,-00000.070158,-00000.063985
0000000015107,00002.557713,00002.261303,00002.163275,00003.348716,00002.679898,00002.567096,00002.661852,00003.188182,00002.768295,00002.552993,-00001.681383,-00000.588425,-00000.563285,-00000.091351,-00000.069883,-00000.063903
0000000015108,00002.557650,00002.261144,00002.163561,00003.348582,00002.679833,00002.567080,00002.661689,00003.188421,00002.768550,00002.552542,-00001.680017,-00000.588929,-00000.562343,-00000.091456,-00000.069360,-00000.063902
0000000015109,00002.557172,00002.260133,00002.163999,00003.348037,00002.679688,00002.566651,00002.661703,00003.188474,00002.768636,00002.552461,-00001.676898,-00000.590602,-00000.561802,-00000.092368,-00000.069930,-00000.064195
0000000015110,00002.556756,00002.260058,00002.164166,00003.347979,00002.679975,00002.566606,00002.661887,00003.188653,00002.768834,00002.552772,-00001.675541,-00000.591353,-00000.561769,-00000.092397,-00000.070594,-00000.064862
0000000015111,00002.556774,00002.259571,00002.164878,00003.348249,00002.679809,00002.566610,00002.661508,00003.189034,00002.768516,00002.552293,-00001.672361,-00000.593754,-00000.563128,-00000.091718,-00000.069166,-00000.065376
0000000015112,00002.556418,00002.259210,00002.165054,00003.347796,00002.679407,00002.566283,00002.661362,00003.189227,00002.768410,00002.551915,-00001.670947,-00000.595362,-00000.564470,-00000.091428,-00000.068705,-00000.065275
0000000015113,00002.556123,00002.259938,00002.165633,00003.347730,00002.679326,00002.565609,00002.661788,00003.189160,00002.768518,00002.551927,-00001.668451,-00000.599344,-00000.566515,-00000.091619,-00000.070098,-00000.065727
0000000015114,00002.556234,00002.260557,00002.166126,00003.348038,00002.679619,00002.565399,00002.662513,00003.189465,00002.768972,00002.552662,-00001.665238,-00000.602371,-00000.566805,-00000.091419,-00000.071284,-00000.066111
0000000015115,00002.556294,00002.261189,00002.166129,00003.348370,00002.679492,00002.565475,00002.662594,00003.189197,00002.769161,00002.552225,-00001.663267,-00000.604418,-00000.567105,-00000.091110,-00000.070693,-00000.065875
0000000015116,00002.555654,00002.261985,00002.166548,00003.348582,00002.679398,00002.565284,00002.663562,00003.188771,00002.769519,00002.551827,-00001.657922,-00000.609230,-00000.568758,-00000.090985,-00000.069976,-00000.065512
0000000015117,00002.555376,00002.262567,00002.166595,00003.348831,00002.679411,00002.565429,00002.663655,00003.188602,00002.769688,00002.551861,-00001.654584,-00000.611588,-00000.569331,-00000.091157,-00000.070211,-00000.065737
0000000015118,00002.555110,00002.262663,00002.166543,00003.348400,00002.679319,00002.565122,00002.664023,00003.188408,00002.769825,00002.551852,-00001.652283,-00000.614052,-00000.569077,-00000.090879,-00000.070454,-00000.065929
0000000015119,00002.555009,00002.263239,00002.166538,00003.348245,00002.679976,00002.564983,00002.665141,00003.188099,00002.769722,00002.552236,-00001.649297,-00000.618883,-00000.568623,-00000.091514,-00000.070862,-00000.065921
0000000015120,00002.555479,00002.263352,00002.166518,00003.348479,00002.679931,00002.565089,00002.665155,00003.188286,00002.769535,00002.552569,-00001.647805,-00000.620900,-00000.568784,-00000.092364,-00000.071758,-00000.065721
0000000015121,00002.555686,00002.263826,00002.166517,00003.348675,00002.680135,00002.564956,00002.666104,00003.188359,00002.769475,00002.552846,-00001.645485,-00000.624350,-00000.570188,-00000.093141,-00000.073422,-00000.065743
0000000015122,00002.555831,00002.263785,00002.166531,00003.348981,00002.680032,00002.565491,00002.665869,00003.188647,00002.769560,00002.552787,-00001.646150,-00000.625824,-00000.571011,-00000.093496,-00000.074190,-00000.065962
0000000015123,00002.555986,00002.263832,00002.166528,00003.349102,00002.679858,00002.565298,00002.666350,00003.188303,00002.769859,00002.552306,-00001.649518,-00000.628179,-00000.573172,-00000.095193,-00000.075856,-00000.066311
0000000015124,00002.556067,00002.263539,00002.166569,00003.349346,00002.679784,00002.565417,00002.666258,00003.188526,00002.769690,00002.552303,-00001.651756,-00000.628698,-00000.574106,-00000.096126,-00000.077134,-00000.066451
0000000015125,00002.556187,00002.263986,00002.166923,00003.349776,00002.680010,00002.565235,00002.667044,00003.188563,00002.769607,00002.552619,-00001.656467,-00000.629537,-00000.576170,-00000.096707,-00000.078725,-00000.067091
0000000015126,00002.556230,00002.264269,00002.166523,00003.350328,00002.679892,00002.565357,00002.667107,00003.188432,00002.769659,00002.552220,-00001.658910,-00000.629874,-00000.577304,-00000.097142,-00000.079045,-00000.066446
0000000015127,00002.556326,00002.263519,00002.166521,00003.351337,00002.679739,00002.565183,00002.666678,00003.188846,00002.769943,00002.551824,-00001.664371,-00000.630901,-00000.579980,-00000.099023,-00000.081077,-00000.065272
0000000015128,00002.556376,00002.263292,00002.166501,00003.351434,00002.680056,00002.564894,00002.666939,00003.188983,00002.769785,00002.551829,-00001.666995,-00000.631221,-00000.581128,-00000.099328,-00000.082011,-00000.065466
0000000015129,00002.556450,00002.263775,00002.166865,00003.352279,00002.679879,00002.564790,00002.666898,00003.188589,00002.770051,00002.551854,-00001.670166,-00000.631322,-00000.582510,-00000.099069,-00000.081063,-00000.066615
0000000015130,00002.556477,00002.263679,00002.167244,00003.352256,00002.680169,00002.564602,00002.666983,00003.188879,00002.770083,00002.551870,-00001.672306,-00000.631485,-00000.583889,-00000.098938,-00000.080034,-00000.066418
0000000015131,00002.556513,00002.263824,00002.167175,00003.352635,00002.680090,00002.564701,00002.666863,00003.188979,00002.769914,00002.551512,-00001.674316,-00000.632134,-00000.584775,-00000.099212,-00000.080255,-00000.066142
0000000015132,00002.556566,00002.263139,00002.167802,00003.353302,00002.679907,00002.564625,00002.666107,00003.189311,00002.769435,00002.551583,-00001.678937,-00000.633550,-00000.585615,-00000.099697,-00000.080656,-00000.065014
0000000015133,00002.556612,00002.264008,00002.168336,00003.353869,00002.680478,00002.564561,00002.666553,00003.189231,00002.769753,00002.551644,-00001.682509,-00000.633667,-00000.586693,-00000.100109,-00000.079909,-00000.064416
0000000015134,00002.556628,00002.264666,00002.168569,00003.354481,00002.680703,00002.564754,00002.667014,00003.189101,00002.770182,00002.551655,-00001.682225,-00000.632533,-00000.587018,-00000.100291,-00000.079762,-00000.063978
0000000015135,00002.556665,00002.265671,00002.168626,00003.355235,00002.680792,00002.565033,00002.667325,00003.189052,00002.770388,00002.551342,-00001.680954,-00000.632076,-00000.586799,-00000.099526,-00000.077697,-00000.062083
0000000015136,00002.556321,00002.265995,00002.168451,00003.355434,00002.680650,00002.564768,00002.667872,00003.188742,00002.770926,00002.551015,-00001.681892,-00000.633813,-00000.587048,-00000.099725,-00000.076192,-00000.061405
0000000015137,00002.556403,00002.265713,00002.168525,00003.355684,00002.680384,00002.564683,00002.667692,00003.188746,00002.771022,00002.551160,-00001.681759,-00000.636431,-00000.587550,-00000.100496,-00000.076109,-00000.060619
0000000015138,00002.556051,00002.265910,00002.168353,00003.355807,00002.680206,00002.564493,00002.667760,00003.188612,00002.771386,00002.551159,-00001.680804,-00000.636621,-00000.587796,-00000.100700,-00000.076310,-00000.060857
0000000015139,00002.555810,00002.265279,00002.167716,00003.356364,00002.679643,00002.564811,00002.667960,00003.188636,00002.771414,00002.550557,-00001.678293,-00000.637733,-00000.588550,-00000.100600,-00000.074396,-00000.060877
0000000015140,00002.555861,00002.264490,00002.167245,00003.356387,00002.679602,00002.564910,00002.667718,00003.188753,00002.771482,00002.550718,-00001.678662,-00000.639375,-00000.589792,-00000.101039,-00000.072767,-00000.060305
0000000015141,00002.555286,00002.263707,00002.164234,00003.356133,00002.679129,00002.563715,00002.667561,00003.188393,00002.770770,00002.550182,-00001.681186,-00000.641891,-00000.591700,-00000.102703,-00000.073193,-00000.059319
0000000015142,00002.555431,00002.262940,00002.162938,00003.356208,00002.679119,00002.563606,00002.667294,00003.188674,00002.770060,00002.549918,-00001.682867,-00000.642789,-00000.592370,-00000.102767,-00000.073246,-00000.059257
0000000015143,00002.555646,00002.261661,00002.159115,00003.355981,00002.678718,00002.562968,00002.666837,00003.189051,00002.769197,00002.549501,-00001.689845,-00000.646975,-00000.596071,-00000.103086,-00000.071787,-00000.058064
