0000000000507,00002.755001,00002.587810,00002.229106,00003.130760,00002.705264,00002.731446,00002.727542,00003.250169,00002.918603,00002.660203,-00000.406397,-00000.074254,-00000.562450,-00000.057086,-00000.088218,-00000.039871
0000000000508,00002.755225,00002.587650,00002.229201,00003.130889,00002.705523,00002.731151,00002.727940,00003.250152,00002.918521,00002.660557,-00000.406617,-00000.074183,-00000.562359,-00000.056822,-00000.088239,-00000.039800
0000000000509,00002.755288,00002.587563,00002.229230,00003.131042,00002.705329,00002.731246,00002.727922,00003.250472,00002.918507,00002.660438,-00000.406552,-00000.074096,-00000.561894,-00000.056579,-00000.087798,-00000.039384
0000000000510,00002.755116,00002.587064,00002.228949,00003.131152,00002.704823,00002.731357,00002.727535,00003.250458,00002.918438,00002.660376,-00000.406377,-00000.073673,-00000.561453,-00000.055991,-00000.087453,-00000.039324
0000000000511,00002.754807,00002.587353,00002.228974,00003.130919,00002.704658,00002.731075,00002.727520,00003.249641,00002.918426,00002.660275,-00000.406321,-00000.073236,-00000.561057,-00000.055422,-00000.087077,-00000.038970
0000000000512,00002.755024,00002.586928,00002.229097,00003.131013,00002.704228,00002.731169,00002.727190,00003.249266,00002.918004,00002.660223,-00000.406172,-00000.072876,-00000.560682,-00000.055284,-00000.086421,-00000.038555
0000000000513,00002.754761,00002.586811,00002.229118,00003.130815,00002.704087,00002.730929,00002.727540,00003.248572,00002.917993,00002.660136,-00000.406125,-00000.072504,-00000.560344,-00000.055162,-00000.086101,-00000.038617
0000000000514,00002.754582,00002.586812,00002.228860,00003.130895,00002.704084,00002.731010,00002.727623,00003.247527,00002.918360,00002.660092,-00000.405998,-00000.072197,-00000.560025,-00000.055044,-00000.085905,-00000.038264
0000000000515,00002.754358,00002.586713,00002.228516,00003.131089,00002.703964,00002.731168,00002.727920,00003.246935,00002.918714,00002.660018,-00000.405958,-00000.071881,-00000.559738,-00000.054941,-00000.085633,-00000.038316
0000000000516,00002.753843,00002.586714,00002.228296,00003.130794,00002.703961,00002.730874,00002.727990,00003.246409,00002.918663,00002.659618,-00000.405850,-00000.071620,-00000.559466,-00000.054841,-00000.085103,-00000.038379
0000000000517,00002.753653,00002.586267,00002.228002,00003.130959,00002.703496,00002.731009,00002.727881,00003.246268,00002.918239,00002.659192,-00000.405815,-00000.071713,-00000.559222,-00000.054752,-00000.084508,-00000.038423
0000000000518,00002.753577,00002.585542,00002.227815,00003.130709,00002.703494,00002.730758,00002.727941,00003.246182,00002.917832,00002.659214,-00000.405723,-00000.071491,-00000.558991,-00000.054667,-00000.084058,-00000.038114
0000000000519,00002.753415,00002.584798,00002.227928,00003.130486,00002.703461,00002.730510,00002.727848,00003.246062,00002.917471,00002.659215,-00000.405694,-00000.071208,-00000.558782,-00000.054592,-00000.083551,-00000.037789
0000000000520,00002.753714,00002.584544,00002.227769,00003.130998,00002.703459,00002.730660,00002.727899,00003.245990,00002.917488,00002.659233,-00000.405616,-00000.071019,-00000.558585,-00000.054520,-00000.083530,-00000.037525
0000000000521,00002.753576,00002.583911,00002.227503,00003.130809,00002.703068,00002.730812,00002.727456,00003.245525,00002.917544,00002.658871,-00000.405591,-00000.070777,-00000.558408,-00000.054456,-00000.083462,-00000.037249
0000000000522,00002.753467,00002.583694,00002.227367,00003.130519,00002.703066,00002.730576,00002.727863,00003.245100,00002.917558,00002.658887,-00000.405525,-00000.070616,-00000.558241,-00000.054394,-00000.083082,-00000.037024
0000000000523,00002.753349,00002.583518,00002.227503,00003.130358,00002.703097,00002.730342,00002.727849,00003.244704,00002.917243,00002.658941,-00000.405503,-00000.070411,-00000.558452,-00000.054340,-00000.082661,-00000.036789
0000000000524,00002.753257,00002.583334,00002.227750,00003.130112,00002.703458,00002.730142,00002.728195,00003.244706,00002.916892,00002.658955,-00000.405447,-00000.070637,-00000.558673,-00000.054287,-00000.082337,-00000.036598
0000000000525,00002.753157,00002.583184,00002.227503,00003.130338,00002.703121,00002.730306,00002.728183,00003.244006,00002.916986,00002.658638,-00000.405791,-00000.070462,-00000.558853,-00000.054241,-00000.082341,-00000.036398
0000000000526,00002.753441,00002.583027,00002.228077,00003.130128,00002.703428,00002.730498,00002.728115,00003.244007,00002.916688,00002.658650,-00000.405743,-00000.070654,-00000.559040,-00000.054196,-00000.082428,-00000.036235
0000000000527,00002.752993,00002.582899,00002.227866,00003.129957,00002.703504,00002.729912,00002.728105,00003.243774,00002.916405,00002.658380,-00000.405674,-00000.070505,-00000.559194,-00000.054157,-00000.082432,-00000.036064
0000000000528,00002.752872,00002.582403,00002.227629,00003.129415,00002.703766,00002.729713,00002.728409,00003.243412,00002.916151,00002.658390,-00000.405633,-00000.070306,-00000.559353,-00000.054119,-00000.082506,-00000.035926
0000000000529,00002.752853,00002.581932,00002.227813,00003.129270,00002.703830,00002.729577,00002.728401,00003.243214,00002.915911,00002.658524,-00000.405574,-00000.070179,-00000.559484,-00000.054085,-00000.082509,-00000.035781
0000000000530,00002.752387,00002.581872,00002.227610,00003.129535,00002.703691,00002.729407,00002.728297,00003.242543,00002.915694,00002.658169,-00000.405902,-00000.070372,-00000.559620,-00000.054053,-00000.082572,-00000.035663
0000000000531,00002.752372,00002.581471,00002.227404,00003.129411,00002.703745,00002.729291,00002.728290,00003.242374,00002.915489,00002.658283,-00000.406214,-00000.070627,-00000.559731,-00000.054024,-00000.082575,-00000.035539
0000000000532,00002.752338,00002.581420,00002.227595,00003.129273,00002.703626,00002.728784,00002.728202,00003.242166,00002.915305,00002.658344,-00000.406493,-00000.070792,-00000.559847,-00000.053996,-00000.082629,-00000.035439
0000000000533,00002.752324,00002.581804,00002.227056,00003.129531,00002.703673,00002.728685,00002.728196,00003.241660,00002.915131,00002.658078,-00000.406397,-00000.071009,-00000.559942,-00000.053972,-00000.082631,-00000.035334
0000000000534,00002.752296,00002.581760,00002.226856,00003.129777,00002.703572,00002.728253,00002.728121,00003.241119,00002.915337,00002.657767,-00000.406271,-00000.070786,-00000.560040,-00000.053949,-00000.082677,-00000.035248
0000000000535,00002.752284,00002.582087,00002.226760,00003.129996,00002.703612,00002.728169,00002.728116,00003.241051,00002.915551,00002.657540,-00000.406189,-00000.070608,-00000.560121,-00000.053928,-00000.082679,-00000.035159
0000000000536,00002.752260,00002.582050,00002.226590,00003.130568,00002.703162,00002.728527,00002.728052,00003.240954,00002.915364,00002.657638,-00000.406082,-00000.070781,-00000.560204,-00000.053908,-00000.082718,-00000.035086
0000000000537,00002.752250,00002.581966,00002.226508,00003.130754,00002.702834,00002.728819,00002.727685,00003.241259,00002.915184,00002.657445,-00000.406375,-00000.070992,-00000.560273,-00000.053890,-00000.082720,-00000.035010
0000000000538,00002.752229,00002.581934,00002.226363,00003.130879,00002.702451,00002.728761,00002.727268,00003.241176,00002.915024,00002.657166,-00000.406284,-00000.070777,-00000.559982,-00000.053873,-00000.082753,-00000.034948
0000000000539,00002.752221,00002.581862,00002.226294,00003.131037,00002.702534,00002.728646,00002.727318,00003.241072,00002.915233,00002.657002,-00000.406534,-00000.070957,-00000.560040,-00000.053858,-00000.083117,-00000.034883
0000000000540,00002.752203,00002.581836,00002.226533,00003.130780,00002.702571,00002.728234,00002.727325,00003.241002,00002.915098,00002.657127,-00000.406819,-00000.071136,-00000.560518,-00000.053844,-00000.083508,-00000.034830
0000000000541,00002.752196,00002.582137,00002.226474,00003.130553,00002.702642,00002.727773,00002.727731,00003.240914,00002.915276,00002.657350,-00000.407031,-00000.071289,-00000.560567,-00000.054194,-00000.083818,-00000.034412
0000000000542,00002.752181,00002.582477,00002.226314,00003.130697,00002.702674,00002.727422,00002.727737,00003.240854,00002.915523,00002.657457,-00000.407274,-00000.071442,-00000.560611,-00000.054544,-00000.084151,-00000.034004
0000000000543,00002.751812,00002.582734,00002.226264,00003.130866,00002.703096,00002.727030,00002.727720,00003.240779,00002.915675,00002.657284,-00000.407455,-00000.071572,-00000.560653,-00000.054842,-00000.084415,-00000.033648
0000000000544,00002.752162,00002.583024,00002.226491,00003.131351,00002.703123,00002.727094,00002.727363,00003.240728,00002.915522,00002.657012,-00000.407662,-00000.071702,-00000.560691,-00000.054778,-00000.084335,-00000.033664
0000000000545,00002.752574,00002.583242,00002.226449,00003.131858,00002.702758,00002.727123,00002.727348,00003.240664,00002.915651,00002.656864,-00000.407453,-00000.071813,-00000.560727,-00000.054669,-00000.084197,-00000.033361
0000000000546,00002.752509,00002.583126,00002.226642,00003.131545,00002.703144,00002.726815,00002.727406,00003.240621,00002.915522,00002.656996,-00000.407266,-00000.071924,-00000.560395,-00000.054977,-00000.084130,-00000.033375
0000000000547,00002.752497,00002.583312,00002.226969,00003.131251,00002.703558,00002.726477,00002.727394,00003.240567,00002.915269,00002.657233,-00000.407088,-00000.072019,-00000.560426,-00000.054884,-00000.084375,-00000.033117
0000000000548,00002.752441,00002.583575,00002.226770,00003.131711,00002.703524,00002.726578,00002.727444,00003.240530,00002.915521,00002.656982,-00000.406929,-00000.072113,-00000.560507,-00000.055146,-00000.085043,-00000.032765
0000000000549,00002.752794,00002.583371,00002.227048,00003.131823,00002.703876,00002.726653,00002.727070,00003.241209,00002.915306,00002.657184,-00000.406778,-00000.072193,-00000.560533,-00000.055067,-00000.085252,-00000.032909
0000000000550,00002.752747,00002.583958,00002.226880,00003.131851,00002.704210,00002.726375,00002.727112,00003.241540,00002.915521,00002.657333,-00000.406643,-00000.071911,-00000.560602,-00000.054927,-00000.085458,-00000.032972
0000000000551,00002.752684,00002.584147,00002.226753,00003.131584,00002.704510,00002.726076,00002.727157,00003.241393,00002.915700,00002.657505,-00000.406514,-00000.071979,-00000.560624,-00000.054860,-00000.085635,-00000.032731
0000000000552,00002.752644,00002.584284,00002.226610,00003.131609,00002.704431,00002.726203,00002.727193,00003.241675,00002.915883,00002.657632,-00000.406398,-00000.072101,-00000.560683,-00000.054741,-00000.085811,-00000.032423
0000000000553,00002.752590,00002.584445,00002.226865,00003.131744,00002.704687,00002.725948,00002.727231,00003.241913,00002.916036,00002.657778,-00000.406289,-00000.071797,-00000.560702,-00000.054683,-00000.085962,-00000.032218
0000000000554,00002.752556,00002.584562,00002.226743,00003.131765,00002.704620,00002.725694,00002.727262,00003.242153,00002.916192,00002.657524,-00000.406191,-00000.071538,-00000.560389,-00000.054582,-00000.086111,-00000.032318
0000000000555,00002.752873,00002.584699,00002.226598,00003.131880,00002.704112,00002.725840,00002.727295,00003.241992,00002.916322,00002.657286,-00000.406097,-00000.071279,-00000.560405,-00000.054533,-00000.085877,-00000.032143
0000000000556,00002.752844,00002.584435,00002.226493,00003.131897,00002.703692,00002.725623,00002.727321,00003.241834,00002.916455,00002.657069,-00000.406014,-00000.071059,-00000.560501,-00000.054447,-00000.086004,-00000.031866
0000000000557,00002.753114,00002.584189,00002.226370,00003.131633,00002.703259,00002.725747,00002.726986,00003.241697,00002.916202,00002.657229,-00000.405934,-00000.071201,-00000.560515,-00000.054769,-00000.086168,-00000.032080
0000000000558,00002.753090,00002.583965,00002.226281,00003.131285,00002.703265,00002.725562,00002.727371,00003.241562,00002.915953,00002.657407,-00000.406226,-00000.071376,-00000.560597,-00000.055058,-00000.086276,-00000.031844
0000000000559,00002.752957,00002.583755,00002.226176,00003.131422,00002.703259,00002.726031,00002.727448,00003.241446,00002.916101,00002.657180,-00000.406158,-00000.071497,-00000.560609,-00000.054969,-00000.086415,-00000.032026
0000000000560,00002.752936,00002.583201,00002.226463,00003.130763,00002.703264,00002.726237,00002.727413,00003.241331,00002.915888,00002.657332,-00000.406044,-00000.071283,-00000.560679,-00000.055215,-00000.086507,-00000.031825
0000000000561,00002.752460,00002.582660,00002.226011,00003.130518,00002.702896,00002.726273,00002.727479,00003.241232,00002.915651,00002.657139,-00000.405986,-00000.071023,-00000.560689,-00000.055139,-00000.086626,-00000.031617
0000000000562,00002.752079,00002.582551,00002.225892,00003.129957,00002.702900,00002.726085,00002.727450,00003.241134,00002.915470,00002.656905,-00000.405889,-00000.070842,-00000.560748,-00000.054986,-00000.086341,-00000.031809
0000000000563,00002.752399,00002.582091,00002.225870,00003.129747,00002.702588,00002.726116,00002.727143,00003.241050,00002.915269,00002.657104,-00000.405840,-00000.070621,-00000.560757,-00000.054921,-00000.086442,-00000.031995
0000000000564,00002.752438,00002.581635,00002.225769,00003.129633,00002.702228,00002.726681,00002.726755,00003.241329,00002.915115,00002.656905,-00000.405757,-00000.070466,-00000.561170,-00000.054791,-00000.086563,-00000.031795
0000000000565,00002.751985,00002.581606,00002.225750,00003.129455,00002.701962,00002.726708,00002.726856,00003.240895,00002.914943,00002.656711,-00000.405715,-00000.070640,-00000.561177,-00000.054736,-00000.086649,-00000.031591
0000000000566,00002.752018,00002.581218,00002.226027,00003.128994,00002.702019,00002.726826,00002.726889,00003.240770,00002.914812,00002.656905,-00000.405644,-00000.070871,-00000.561167,-00000.054625,-00000.087114,-00000.031421
0000000000567,00002.751996,00002.580830,00002.226011,00003.129205,00002.701792,00002.727212,00002.726613,00003.241125,00002.914666,00002.656740,-00000.405609,-00000.070657,-00000.561173,-00000.054578,-00000.087550,-00000.031247
0000000000568,00002.752024,00002.580863,00002.225884,00003.129176,00002.701840,00002.726950,00002.726640,00003.240656,00002.914554,00002.656542,-00000.405549,-00000.070854,-00000.561163,-00000.054484,-00000.087947,-00000.031102
0000000000569,00002.752367,00002.580533,00002.226233,00003.128993,00002.702010,00002.726915,00002.726405,00003.240959,00002.914067,00002.656764,-00000.405518,-00000.070671,-00000.561169,-00000.054444,-00000.087955,-00000.030954
0000000000570,00002.752754,00002.580198,00002.226488,00003.128968,00002.702051,00002.727055,00002.726066,00003.241285,00002.913609,00002.656958,-00000.405467,-00000.070476,-00000.561161,-00000.054726,-00000.087929,-00000.030831
0000000000571,00002.751958,00002.579917,00002.226060,00003.128450,00002.701833,00002.726662,00002.726228,00003.240455,00002.913195,00002.656785,-00000.405441,-00000.070321,-00000.560803,-00000.055055,-00000.087937,-00000.031067
0000000000572,00002.751924,00002.579632,00002.226277,00003.128428,00002.701505,00002.727144,00002.725940,00003.240370,00002.913168,00002.656587,-00000.405398,-00000.070517,-00000.560796,-00000.054933,-00000.087915,-00000.030962
0000000000573,00002.751972,00002.579393,00002.226275,00003.128712,00002.701319,00002.727536,00002.726078,00003.240751,00002.913177,00002.656803,-00000.405739,-00000.070748,-00000.560854,-00000.055213,-00000.087921,-00000.030801
0000000000574,00002.751943,00002.579150,00002.226459,00003.128694,00002.701403,00002.727583,00002.726195,00003.240679,00002.912792,00002.656997,-00000.406064,-00000.070915,-00000.561211,-00000.055471,-00000.088265,-00000.030712
0000000000575,00002.751984,00002.578947,00002.226820,00003.128574,00002.701245,00002.727917,00002.725950,00003.241003,00002.912437,00002.656818,-00000.406355,-00000.071111,-00000.561623,-00000.055710,-00000.088633,-00000.030574
0000000000576,00002.751960,00002.578740,00002.226615,00003.128558,00002.700954,00002.727957,00002.725687,00003.240942,00002.912109,00002.656621,-00000.406632,-00000.071254,-00000.561927,-00000.055930,-00000.088926,-00000.030498
0000000000577,00002.751995,00002.578929,00002.226559,00003.128818,00002.700819,00002.728241,00002.725841,00003.240855,00002.912170,00002.656468,-00000.406516,-00000.071421,-00000.562277,-00000.056133,-00000.088877,-00000.030382
0000000000578,00002.751611,00002.578754,00002.226384,00003.128442,00002.700934,00002.727912,00002.725617,00003.240803,00002.911890,00002.656300,-00000.406389,-00000.071542,-00000.562536,-00000.055957,-00000.088764,-00000.030317
0000000000579,00002.751641,00002.578552,00002.226337,00003.127938,00002.701182,00002.727791,00002.725748,00003.240729,00002.911579,00002.656532,-00000.406291,-00000.071684,-00000.562472,-00000.056130,-00000.088359,-00000.030217
0000000000580,00002.751677,00002.578402,00002.226188,00003.127981,00002.700917,00002.728237,00002.725557,00003.241047,00002.911341,00002.656752,-00000.406183,-00000.071788,-00000.562329,-00000.056343,-00000.088262,-00000.030162
0000000000581,00002.751702,00002.578231,00002.226511,00003.127551,00002.701128,00002.728134,00002.725669,00003.240984,00002.911077,00002.656950,-00000.406099,-00000.071909,-00000.562275,-00000.056490,-00000.088643,-00000.030078
0000000000582,00002.751733,00002.578103,00002.226384,00003.127588,00002.701265,00002.728514,00002.725507,00003.241255,00002.910874,00002.657138,-00000.406007,-00000.071997,-00000.562153,-00000.056672,-00000.088924,-00000.030031
0000000000583,00002.751755,00002.577957,00002.226296,00003.127222,00002.701445,00002.728426,00002.725602,00003.240839,00002.911012,00002.657306,-00000.405936,-00000.072100,-00000.562107,-00000.056797,-00000.089248,-00000.029959
0000000000584,00002.751781,00002.577486,00002.226188,00003.127253,00002.701199,00002.728386,00002.725464,00003.240707,00002.910839,00002.657466,-00000.405857,-00000.072174,-00000.562004,-00000.056952,-00000.089487,-00000.029919
0000000000585,00002.751074,00002.577724,00002.225750,00003.127305,00002.700989,00002.727949,00002.725545,00003.240353,00002.910956,00002.657246,-00000.405797,-00000.072262,-00000.561964,-00000.057059,-00000.089763,-00000.029857
0000000000586,00002.751459,00002.577686,00002.226021,00003.127331,00002.700779,00002.727915,00002.725790,00003.240240,00002.910809,00002.657382,-00000.405730,-00000.071963,-00000.561876,-00000.056828,-00000.089966,-00000.029823
0000000000587,00002.751945,00002.577526,00002.226011,00003.127738,00002.700601,00002.728268,00002.725496,00003.240301,00002.910909,00002.657195,-00000.405678,-00000.071675,-00000.561842,-00000.056555,-00000.090201,-00000.030134
0000000000588,00002.751910,00002.577493,00002.225879,00003.127760,00002.700423,00002.728602,00002.725342,00003.240568,00002.911147,00002.657311,-00000.405259,-00000.071420,-00000.561767,-00000.056359,-00000.090737,-00000.030105
0000000000589,00002.751961,00002.577357,00002.226233,00003.127744,00002.700633,00002.728540,00002.725454,00003.240983,00002.911232,00002.657515,-00000.405215,-00000.071538,-00000.561739,-00000.056490,-00000.091300,-00000.030006
0000000000590,00002.751932,00002.577692,00002.226121,00003.127763,00002.700844,00002.728461,00002.725686,00003.240848,00002.911434,00002.657613,-00000.405221,-00000.071684,-00000.561675,-00000.056685,-00000.091756,-00000.029982
0000000000591,00002.751975,00002.577939,00002.226059,00003.127386,00002.700661,00002.728408,00002.725782,00003.240838,00002.911506,00002.657424,-00000.405183,-00000.071784,-00000.561651,-00000.056797,-00000.092235,-00000.030261
0000000000592,00002.751950,00002.578587,00002.225964,00003.127402,00002.700478,00002.728342,00002.725979,00003.240360,00002.911679,00002.657145,-00000.404825,-00000.071546,-00000.561596,-00000.056963,-00000.092987,-00000.030603
0000000000593,00002.752350,00002.578797,00002.225912,00003.127807,00002.700322,00002.728659,00002.725698,00003.240352,00002.911740,00002.657346,-00000.404430,-00000.071268,-00000.561575,-00000.057058,-00000.093395,-00000.030840
0000000000594,00002.751965,00002.578986,00002.225830,00003.128184,00002.700166,00002.728966,00002.725866,00003.239945,00002.912250,00002.657109,-00000.404126,-00000.071065,-00000.561529,-00000.057200,-00000.093671,-00000.031131
0000000000595,00002.751943,00002.578802,00002.225786,00003.128166,00002.700396,00002.728873,00002.725989,00003.240300,00002.912302,00002.657643,-00000.403790,-00000.070829,-00000.561512,-00000.057281,-00000.093656,-00000.031333
0000000000596,00002.751616,00002.578963,00002.225716,00003.128486,00002.700263,00002.728408,00002.726132,00003.240317,00002.912736,00002.657441,-00000.403530,-00000.070656,-00000.561472,-00000.057401,-00000.093891,-00000.031218
0000000000597,00002.751597,00002.579169,00002.225679,00003.128471,00002.700096,00002.728329,00002.726237,00003.239894,00002.912780,00002.657171,-00000.403244,-00000.070455,-00000.561457,-00000.057107,-00000.094241,-00000.031390
0000000000598,00002.752044,00002.579306,00002.225982,00003.128381,00002.700346,00002.728659,00002.725996,00003.240271,00002.912787,00002.657361,-00000.403023,-00000.070307,-00000.561424,-00000.057210,-00000.094441,-00000.031655
0000000000599,00002.752028,00002.579845,00002.225950,00003.128731,00002.700203,00002.728592,00002.726085,00003.239911,00002.913187,00002.657131,-00000.402780,-00000.070136,-00000.561411,-00000.056960,-00000.094739,-00000.031802
0000000000600,00002.752045,00002.579961,00002.225846,00003.129017,00002.699690,00002.728873,00002.725880,00003.239869,00002.913556,00002.656930,-00000.402592,-00000.070011,-00000.561382,-00000.056684,-00000.094910,-00000.031664
0000000000601,00002.752394,00002.580057,00002.226181,00003.129315,00002.699207,00002.728816,00002.725593,00003.239925,00002.913897,00002.657097,-00000.402384,-00000.069865,-00000.561009,-00000.056471,-00000.094800,-00000.031789
0000000000602,00002.752772,00002.580156,00002.226455,00003.129195,00002.699133,00002.728692,00002.725781,00003.239889,00002.914210,00002.657289,-00000.402224,-00000.069759,-00000.560622,-00000.056237,-00000.094583,-00000.032035
0000000000603,00002.752344,00002.580600,00002.226378,00003.129086,00002.699084,00002.728643,00002.725900,00003.239937,00002.914864,00002.657068,-00000.402048,-00000.069634,-00000.560666,-00000.056055,-00000.094852,-00000.032141
0000000000604,00002.752665,00002.580684,00002.226611,00003.128985,00002.699384,00002.728538,00002.725697,00003.240270,00002.914768,00002.657232,-00000.401912,-00000.069544,-00000.560337,-00000.056219,-00000.094667,-00000.032350
0000000000605,00002.752301,00002.581063,00002.226546,00003.129254,00002.699342,00002.728860,00002.725799,00003.240673,00002.914961,00002.657044,-00000.401761,-00000.069801,-00000.560375,-00000.056064,-00000.094534,-00000.032441
0000000000606,00002.752212,00002.581497,00002.226382,00003.129531,00002.699234,00002.728770,00002.725989,00003.240956,00002.915605,00002.656820,-00000.401645,-00000.069724,-00000.560457,-00000.055840,-00000.094376,-00000.032619
0000000000607,00002.752264,00002.581819,00002.226688,00003.129398,00002.699561,00002.728681,00002.726075,00003.241300,00002.915769,00002.657023,-00000.401518,-00000.069580,-00000.560127,-00000.055709,-00000.094263,-00000.032696
0000000000608,00002.751826,00002.581826,00002.226549,00003.128907,00002.699470,00002.728241,00002.726600,00003.241178,00002.915955,00002.657195,-00000.401419,-00000.069514,-00000.559834,-00000.055518,-00000.094129,-00000.032848
0000000000609,00002.752233,00002.581375,00002.226810,00003.128431,00002.699748,00002.727803,00002.726673,00003.241470,00002.915732,00002.657368,-00000.401310,-00000.069754,-00000.559915,-00000.055406,-00000.093669,-00000.032913
0000000000610,00002.752585,00002.581018,00002.226691,00003.128377,00002.699671,00002.727429,00002.726394,00003.241367,00002.915527,00002.657152,-00000.401226,-00000.069698,-00000.560029,-00000.055244,-00000.093555,-00000.032680
0000000000611,00002.752569,00002.580997,00002.226913,00003.127971,00002.699908,00002.727055,00002.726456,00003.241253,00002.915338,00002.657299,-00000.401133,-00000.069540,-00000.560098,-00000.055149,-00000.093527,-00000.032735
0000000000612,00002.752506,00002.580330,00002.226812,00003.127562,00002.699479,00002.726737,00002.726219,00003.241527,00002.915163,00002.657115,-00000.401062,-00000.069492,-00000.560195,-00000.055374,-00000.093067,-00000.032899
0000000000613,00002.752855,00002.579949,00002.227001,00003.127217,00002.699680,00002.726419,00002.726272,00003.241430,00002.915002,00002.657240,-00000.400983,-00000.069358,-00000.560254,-00000.055655,-00000.093043,-00000.032947
0000000000614,00002.752439,00002.580107,00002.226915,00003.127231,00002.699678,00002.726511,00002.726433,00003.241301,00002.914853,00002.657084,-00000.400922,-00000.069317,-00000.560336,-00000.055484,-00000.093014,-00000.033086
0000000000615,00002.752011,00002.579783,00002.226350,00003.126938,00002.699487,00002.726240,00002.726478,00003.241219,00002.914716,00002.657190,-00000.400855,-00000.069202,-00000.560024,-00000.055724,-00000.092631,-00000.033127
0000000000616,00002.752019,00002.579192,00002.226277,00003.126950,00002.699122,00002.726319,00002.726252,00003.241109,00002.914226,00002.657057,-00000.400803,-00000.069168,-00000.559731,-00000.055578,-00000.092243,-00000.033245
0000000000617,00002.752017,00002.578916,00002.226522,00003.127063,00002.698959,00002.726451,00002.725928,00003.241401,00002.913747,00002.657147,-00000.400746,-00000.069070,-00000.559828,-00000.055419,-00000.092280,-00000.033280
0000000000618,00002.752024,00002.578775,00002.226460,00003.127073,00002.698649,00002.726880,00002.725735,00003.241308,00002.913693,00002.657034,-00000.400701,-00000.069041,-00000.559579,-00000.055295,-00000.092313,-00000.033018
0000000000619,00002.752385,00002.578540,00002.226668,00003.127532,00002.698873,00002.727356,00002.725822,00003.241557,00002.913647,00002.657474,-00000.400290,-00000.068958,-00000.559298,-00000.055160,-00000.091981,-00000.033047
0000000000620,00002.752029,00002.578784,00002.226615,00003.127541,00002.698972,00002.727359,00002.726021,00003.241477,00002.913602,00002.657377,-00000.400252,-00000.068933,-00000.559086,-00000.055054,-00000.091646,-00000.033187
0000000000621,00002.751611,00002.578583,00002.226067,00003.127568,00002.698800,00002.727401,00002.726095,00003.240964,00002.913926,00002.657026,-00000.400265,-00000.068862,-00000.559210,-00000.055302,-00000.091364,-00000.032850
0000000000622,00002.751307,00002.578428,00002.226022,00003.127939,00002.698884,00002.727403,00002.726264,00003.240896,00002.914249,00002.657307,-00000.400233,-00000.068840,-00000.559392,-00000.055212,-00000.091079,-00000.032606
0000000000623,00002.751314,00002.577895,00002.226281,00003.127962,00002.698737,00002.727801,00002.725964,00003.240821,00002.913800,00002.657371,-00000.400244,-00000.068780,-00000.559135,-00000.055422,-00000.091202,-00000.032318
0000000000624,00002.751418,00002.577762,00002.226242,00003.128278,00002.698446,00002.728166,00002.725746,00003.241126,00002.913350,00002.657247,-00000.400216,-00000.068762,-00000.559290,-00000.055346,-00000.091322,-00000.032111
0000000000625,00002.751424,00002.577671,00002.226100,00003.128298,00002.698321,00002.728506,00002.725490,00003.241426,00002.912967,00002.657301,-00000.400225,-00000.068711,-00000.559434,-00000.055163,-00000.091063,-00000.031866
0000000000626,00002.751150,00002.577921,00002.226067,00003.128203,00002.698436,00002.728453,00002.725667,00003.240960,00002.912947,00002.657196,-00000.400202,-00000.069058,-00000.559566,-00000.055097,-00000.090803,-00000.032052
0000000000627,00002.751155,00002.577844,00002.225946,00003.128583,00002.697967,00002.728742,00002.725450,00003.240852,00002.912984,00002.656879,-00000.400210,-00000.069015,-00000.559689,-00000.055304,-00000.090583,-00000.032207
0000000000628,00002.750922,00002.577694,00002.225918,00003.128866,00002.698065,00002.728698,00002.725600,00003.240455,00002.913329,00002.656790,-00000.400190,-00000.069310,-00000.559801,-00000.055249,-00000.090361,-00000.032002
0000000000629,00002.750563,00002.577990,00002.225815,00003.128463,00002.698028,00002.728581,00002.725778,00003.240364,00002.913360,00002.656520,-00000.400197,-00000.069273,-00000.559905,-00000.055062,-00000.090174,-00000.031771
0000000000630,00002.750364,00002.578226,00002.225791,00003.128704,00002.698112,00002.728906,00002.725906,00003.240389,00002.913655,00002.656444,-00000.400543,-00000.069162,-00000.560001,-00000.055377,-00000.089985,-00000.031597
0000000000631,00002.750059,00002.578115,00002.225704,00003.129087,00002.698081,00002.728806,00002.726057,00003.239948,00002.914044,00002.656214,-00000.400548,-00000.069130,-00000.560090,-00000.055218,-00000.089825,-00000.031400
0000000000632,00002.750253,00002.577953,00002.225321,00003.128929,00002.697789,00002.728720,00002.726166,00003.239969,00002.913932,00002.656149,-00000.400843,-00000.069399,-00000.560171,-00000.055487,-00000.089302,-00000.031252
0000000000633,00002.749993,00002.577859,00002.225246,00003.128530,00002.697762,00002.728635,00002.726295,00003.239957,00002.913901,00002.656317,-00000.401210,-00000.069734,-00000.560247,-00000.055714,-00000.089166,-00000.031085
0000000000634,00002.749795,00002.577721,00002.225283,00003.128032,00002.697514,00002.728199,00002.726388,00003.239612,00002.913805,00002.656261,-00000.401461,-00000.069963,-00000.560316,-00000.055943,-00000.089083,-00000.030959
0000000000635,00002.749937,00002.577641,00002.225219,00003.128055,00002.697128,00002.728490,00002.726135,00003.239601,00002.913416,00002.656041,-00000.401774,-00000.069886,-00000.560381,-00000.055774,-00000.088968,-00000.030816
0000000000636,00002.750131,00002.577886,00002.225613,00003.127994,00002.697642,00002.728481,00002.726577,00003.239671,00002.913334,00002.656357,-00000.401988,-00000.070080,-00000.560440,-00000.055606,-00000.088897,-00000.030709
0000000000637,00002.750252,00002.577455,00002.225559,00003.128014,00002.697677,00002.728366,00002.726361,00003.239662,00002.913003,00002.656532,-00000.402254,-00000.070378,-00000.560494,-00000.055462,-00000.088799,-00000.030587
0000000000638,00002.750417,00002.577301,00002.225532,00003.127962,00002.697389,00002.728359,00002.726012,00003.240084,00002.912933,00002.656801,-00000.402436,-00000.070543,-00000.560545,-00000.055319,-00000.088376,-00000.030496
0000000000639,00002.750520,00002.577297,00002.225486,00003.127979,00002.697419,00002.727898,00002.726191,00003.240076,00002.913014,00002.656950,-00000.402662,-00000.070796,-00000.560591,-00000.055196,-00000.088292,-00000.030392
0000000000640,00002.750661,00002.577528,00002.225462,00003.127935,00002.697899,00002.727891,00002.726256,00003.240072,00002.912955,00002.657179,-00000.402817,-00000.070574,-00000.560634,-00000.055074,-00000.088295,-00000.030314
0000000000641,00002.751111,00002.577525,00002.225786,00003.127949,00002.698287,00002.727862,00002.726409,00003.240066,00002.912661,00002.657306,-00000.403010,-00000.070790,-00000.560674,-00000.054970,-00000.088224,-00000.030226
0000000000642,00002.750868,00002.577722,00002.225766,00003.127912,00002.698696,00002.727856,00002.726827,00003.240063,00002.912611,00002.657501,-00000.403142,-00000.070964,-00000.560710,-00000.054866,-00000.088226,-00000.030160
0000000000643,00002.751251,00002.578082,00002.225679,00003.128286,00002.698301,00002.728194,00002.726957,00003.240057,00002.912723,00002.657609,-00000.403306,-00000.071147,-00000.560744,-00000.055140,-00000.088165,-00000.030085
0000000000644,00002.751407,00002.577887,00002.225662,00003.127892,00002.698286,00002.728190,00002.726951,00003.239692,00002.912680,00002.657775,-00000.403418,-00000.071295,-00000.560775,-00000.055052,-00000.088167,-00000.030029
0000000000645,00002.751370,00002.578193,00002.225587,00003.127848,00002.698313,00002.728114,00002.727061,00003.239687,00002.912776,00002.657867,-00000.403195,-00000.071451,-00000.560804,-00000.054922,-00000.088116,-00000.029965
0000000000646,00002.751866,00002.578390,00002.225936,00003.128238,00002.697937,00002.728473,00002.726693,00003.240101,00002.912377,00002.658008,-00000.403291,-00000.071577,-00000.560830,-00000.055210,-00000.088480,-00000.029917
0000000000647,00002.751835,00002.578651,00002.225873,00003.128200,00002.698323,00002.728409,00002.727150,00003.240097,00002.912821,00002.657724,-00000.403464,-00000.071710,-00000.561217,-00000.055462,-00000.088799,-00000.029863
0000000000648,00002.751894,00002.578818,00002.225806,00003.128169,00002.698003,00002.728352,00002.726836,00003.240450,00002.912844,00002.657481,-00000.403545,-00000.071818,-00000.561603,-00000.055707,-00000.089109,-00000.029822
0000000000649,00002.751868,00002.579040,00002.225752,00003.127775,00002.697968,00002.727934,00002.726862,00003.240084,00002.912496,00002.657602,-00000.403692,-00000.071931,-00000.561932,-00000.055922,-00000.089381,-00000.029776
0000000000650,00002.751555,00002.579183,00002.225696,00003.127748,00002.698059,00002.727523,00002.726958,00003.240021,00002.912516,00002.657395,-00000.403762,-00000.072022,-00000.562260,-00000.056131,-00000.089645,-00000.029741
0000000000651,00002.751532,00002.579372,00002.225650,00003.128138,00002.697667,00002.727530,00002.726618,00003.240072,00002.912583,00002.657135,-00000.403887,-00000.072119,-00000.562541,-00000.056314,-00000.089876,-00000.029702
0000000000652,00002.751629,00002.579856,00002.225965,00003.128478,00002.697744,00002.727543,00002.727062,00003.240019,00002.912962,00002.656959,-00000.403946,-00000.072196,-00000.562820,-00000.056491,-00000.090101,-00000.029672
0000000000653,00002.751610,00002.580380,00002.225926,00003.128447,00002.697773,00002.727186,00002.727135,00003.240063,00002.913020,00002.656738,-00000.404053,-00000.072278,-00000.562696,-00000.056647,-00000.089935,-00000.029638
0000000000654,00002.751692,00002.580429,00002.225831,00003.128737,00002.697476,00002.727197,00002.726788,00003.240017,00002.912980,00002.656588,-00000.404103,-00000.071982,-00000.562571,-00000.056798,-00000.089763,-00000.029613
0000000000655,00002.752039,00002.580512,00002.226161,00003.128711,00002.697500,00002.726893,00002.726487,00003.240417,00002.912666,00002.656762,-00000.404194,-00000.072051,-00000.562829,-00000.056930,-00000.089985,-00000.029585
0000000000656,00002.752472,00002.580917,00002.226443,00003.128957,00002.697610,00002.726902,00002.726554,00003.240742,00002.912632,00002.656998,-00000.404236,-00000.072162,-00000.563085,-00000.057059,-00000.089839,-00000.029563
0000000000657,00002.752404,00002.581351,00002.226361,00003.129297,00002.697631,00002.727007,00002.726661,00003.240719,00002.913090,00002.656783,-00000.404314,-00000.072221,-00000.563304,-00000.057172,-00000.089665,-00000.029539
0000000000658,00002.752773,00002.581695,00002.226601,00003.129507,00002.697362,00002.727377,00002.726355,00003.241358,00002.913061,00002.656621,-00000.404350,-00000.072315,-00000.563159,-00000.056919,-00000.089540,-00000.029521
0000000000659,00002.752715,00002.582065,00002.226531,00003.129072,00002.697742,00002.727466,00002.726446,00003.241702,00002.913088,00002.656438,-00000.404416,-00000.072366,-00000.562983,-00000.057015,-00000.089392,-00000.029500
0000000000660,00002.752666,00002.581995,00002.226373,00003.128525,00002.697876,00002.727419,00002.726549,00003.241883,00002.913064,00002.656663,-00000.404084,-00000.072446,-00000.562860,-00000.057162,-00000.089286,-00000.029485
0000000000661,00002.752979,00002.582309,00002.226676,00003.128516,00002.698200,00002.727857,00002.726626,00003.242538,00002.913087,00002.656870,-00000.404140,-00000.072126,-00000.562710,-00000.056881,-00000.088797,-00000.029467
0000000000662,00002.752938,00002.582976,00002.226541,00003.128776,00002.698313,00002.728180,00002.726713,00003.242692,00002.913429,00002.656699,-00000.403858,-00000.071831,-00000.562605,-00000.056643,-00000.088344,-00000.029454
0000000000663,00002.753205,00002.582880,00002.226799,00003.128769,00002.698589,00002.728190,00002.726779,00003.242887,00002.913448,00002.656875,-00000.403905,-00000.071922,-00000.562477,-00000.056404,-00000.087928,-00000.029439
0000000000664,00002.753169,00002.582722,00002.226684,00003.128628,00002.698686,00002.727739,00002.726491,00003.243018,00002.913014,00002.657092,-00000.404028,-00000.072034,-00000.562388,-00000.056202,-00000.087543,-00000.029427
0000000000665,00002.753396,00002.582278,00002.226904,00003.128622,00002.698921,00002.727385,00002.726184,00003.242822,00002.912668,00002.657242,-00000.404068,-00000.072111,-00000.562279,-00000.056361,-00000.087188,-00000.029052
0000000000666,00002.753366,00002.582144,00002.226806,00003.128864,00002.698640,00002.727364,00002.726301,00003.242571,00002.912661,00002.657064,-00000.404172,-00000.072206,-00000.562203,-00000.056552,-00000.086860,-00000.028680
0000000000667,00002.753560,00002.582128,00002.226993,00003.128859,00002.698840,00002.727788,00002.726403,00003.242403,00002.912366,00002.657192,-00000.404207,-00000.072272,-00000.562111,-00000.056687,-00000.086558,-00000.028360
0000000000668,00002.753171,00002.582014,00002.226547,00003.128703,00002.698964,00002.727770,00002.726503,00003.241827,00002.912360,00002.657040,-00000.404296,-00000.072353,-00000.562046,-00000.056487,-00000.085916,-00000.028406
0000000000669,00002.752973,00002.581638,00002.226344,00003.128698,00002.699135,00002.727769,00002.726590,00003.241684,00002.912472,00002.657149,-00000.404325,-00000.072046,-00000.561967,-00000.056239,-00000.085659,-00000.028496
0000000000670,00002.753005,00002.581178,00002.226327,00003.128565,00002.699603,00002.727753,00002.727037,00003.241556,00002.912467,00002.657383,-00000.404400,-00000.071752,-00000.561912,-00000.056069,-00000.085112,-00000.028535
0000000000671,00002.752836,00002.580858,00002.226516,00003.128562,00002.699022,00002.728115,00002.726748,00003.241435,00002.912199,00002.657112,-00000.404063,-00000.071854,-00000.561845,-00000.055858,-00000.084168,-00000.028612
0000000000672,00002.752864,00002.580466,00002.226865,00003.128085,00002.699421,00002.728102,00002.726767,00003.241326,00002.912195,00002.657311,-00000.404127,-00000.071966,-00000.561798,-00000.055713,-00000.083703,-00000.028283
0000000000673,00002.752720,00002.580194,00002.226663,00003.128445,00002.698927,00002.728047,00002.726521,00003.241222,00002.911967,00002.657081,-00000.404202,-00000.072053,-00000.561741,-00000.055896,-00000.083262,-00000.028348
0000000000674,00002.752743,00002.579860,00002.226597,00003.128765,00002.698541,00002.728398,00002.726173,00003.241130,00002.911601,00002.656888,-00000.404257,-00000.072149,-00000.561701,-00000.055772,-00000.083228,-00000.028068
0000000000675,00002.752258,00002.579991,00002.226426,00003.129071,00002.698483,00002.728352,00002.726327,00003.241042,00002.911770,00002.656692,-00000.404321,-00000.071860,-00000.561653,-00000.055566,-00000.083216,-00000.028124
0000000000676,00002.752278,00002.580070,00002.226369,00003.129344,00002.698154,00002.728651,00002.726394,00003.240600,00002.911821,00002.656527,-00000.404367,-00000.071578,-00000.561619,-00000.055460,-00000.082824,-00000.027885
0000000000677,00002.752228,00002.579819,00002.226586,00003.129242,00002.698104,00002.728974,00002.726162,00003.240525,00002.911602,00002.656361,-00000.404422,-00000.071332,-00000.561577,-00000.055285,-00000.082451,-00000.027570
0000000000678,00002.752245,00002.579523,00002.226538,00003.129111,00002.698187,00002.728866,00002.726219,00003.240512,00002.911645,00002.656221,-00000.404462,-00000.071093,-00000.561548,-00000.055195,-00000.082118,-00000.027366
0000000000679,00002.752565,00002.579309,00002.226360,00003.129024,00002.697783,00002.728778,00002.726021,00003.240448,00002.911821,00002.656079,-00000.404508,-00000.070883,-00000.561513,-00000.055045,-00000.081437,-00000.027461
0000000000680,00002.752579,00002.579420,00002.226319,00003.128913,00002.697853,00002.728686,00002.726070,00003.240074,00002.911858,00002.655959,-00000.404542,-00000.071042,-00000.561488,-00000.054969,-00000.081154,-00000.027288
0000000000681,00002.752489,00002.579238,00002.226168,00003.129202,00002.697508,00002.728974,00002.725902,00003.240020,00002.912008,00002.655839,-00000.404581,-00000.071227,-00000.561458,-00000.055204,-00000.081300,-00000.027368
0000000000682,00002.752138,00002.578970,00002.226133,00003.128744,00002.697569,00002.728896,00002.725943,00003.240064,00002.911677,00002.656100,-00000.404610,-00000.071362,-00000.561438,-00000.055139,-00000.081058,-00000.027221
0000000000683,00002.752062,00002.578815,00002.226004,00003.128264,00002.697638,00002.728778,00002.726163,00003.240018,00002.911442,00002.656360,-00000.404644,-00000.071519,-00000.561412,-00000.054977,-00000.080820,-00000.027289
0000000000684,00002.751763,00002.578949,00002.225974,00003.128600,00002.697689,00002.728712,00002.726198,00003.240056,00002.911885,00002.656219,-00000.404668,-00000.071634,-00000.561394,-00000.054922,-00000.080614,-00000.027164
0000000000685,00002.751698,00002.578817,00002.225864,00003.128918,00002.697385,00002.728974,00002.726022,00003.240016,00002.912048,00002.656078,-00000.404697,-00000.071405,-00000.561372,-00000.054783,-00000.080048,-00000.027222
0000000000686,00002.751806,00002.578569,00002.225839,00003.128478,00002.697429,00002.728917,00002.726052,00003.240048,00002.911700,00002.656321,-00000.404718,-00000.071503,-00000.561357,-00000.054736,-00000.079873,-00000.027478
0000000000687,00002.752113,00002.578456,00002.225745,00003.128385,00002.697533,00002.728778,00002.725902,00003.240378,00002.911476,00002.656201,-00000.404742,-00000.071671,-00000.560976,-00000.054618,-00000.079755,-00000.027528
0000000000688,00002.752206,00002.578608,00002.225724,00003.128737,00002.697570,00002.729093,00002.725928,00003.240042,00002.911542,00002.656045,-00000.404760,-00000.071392,-00000.560600,-00000.054578,-00000.079606,-00000.027746
0000000000689,00002.752467,00002.578512,00002.226007,00003.128658,00002.697659,00002.729337,00002.726163,00003.240323,00002.911351,00002.656305,-00000.404418,-00000.071172,-00000.560276,-00000.054478,-00000.079504,-00000.027788
0000000000690,00002.752183,00002.578641,00002.225989,00003.128957,00002.697691,00002.729605,00002.726185,00003.240400,00002.911408,00002.656172,-00000.404433,-00000.070934,-00000.559956,-00000.054444,-00000.079378,-00000.028336
0000000000691,00002.751680,00002.578922,00002.225867,00003.129253,00002.697766,00002.729450,00002.726385,00003.239913,00002.911608,00002.656031,-00000.404142,-00000.070747,-00000.559679,-00000.054359,-00000.079291,-00000.028372
0000000000692,00002.751439,00002.578669,00002.225851,00003.129145,00002.697793,00002.728952,00002.726041,00003.239253,00002.911294,00002.655918,-00000.403792,-00000.070544,-00000.559407,-00000.054330,-00000.079184,-00000.028476
0000000000693,00002.751373,00002.578183,00002.226110,00003.129033,00002.697857,00002.728458,00002.725849,00003.239201,00002.911101,00002.656161,-00000.403544,-00000.070385,-00000.559172,-00000.054257,-00000.079473,-00000.028869
0000000000694,00002.751530,00002.577968,00002.226097,00003.128941,00002.697880,00002.728034,00002.725918,00003.239365,00002.910833,00002.656428,-00000.403609,-00000.070575,-00000.558940,-00000.054232,-00000.079744,-00000.028958
0000000000695,00002.751474,00002.577917,00002.225955,00003.128847,00002.697572,00002.727976,00002.725755,00003.239321,00002.910670,00002.656271,-00000.403761,-00000.070440,-00000.558740,-00000.054170,-00000.080353,-00000.028930
0000000000696,00002.751608,00002.577733,00002.225944,00003.128406,00002.697592,00002.727615,00002.725451,00003.239823,00002.910804,00002.656861,-00000.403816,-00000.070239,-00000.558542,-00000.054149,-00000.080947,-00000.029368
0000000000697,00002.751923,00002.578053,00002.226185,00003.128325,00002.697329,00002.727566,00002.725312,00003.240149,00002.910665,00002.657091,-00000.403582,-00000.070123,-00000.558372,-00000.054097,-00000.081102,-00000.029344
0000000000698,00002.752037,00002.578622,00002.226176,00003.128675,00002.697346,00002.727259,00002.725416,00003.239851,00002.910780,00002.656867,-00000.403266,-00000.069953,-00000.558204,-00000.054079,-00000.081245,-00000.029355
0000000000699,00002.751943,00002.578894,00002.226019,00003.128969,00002.697123,00002.727216,00002.725298,00003.239765,00002.911024,00002.656700,-00000.403430,-00000.070217,-00000.558059,-00000.054034,-00000.081740,-00000.029334
0000000000700,00002.752040,00002.579016,00002.226011,00003.129267,00002.697137,00002.727318,00002.725387,00003.239874,00002.911485,00002.656873,-00000.403162,-00000.070072,-00000.557916,-00000.054019,-00000.081861,-00000.029343
0000000000701,00002.751959,00002.579610,00002.226240,00003.129155,00002.697672,00002.727645,00002.725286,00003.240164,00002.911330,00002.657093,-00000.403301,-00000.070297,-00000.558155,-00000.053981,-00000.081920,-00000.029326
0000000000702,00002.751679,00002.580077,00002.226233,00003.129409,00002.697684,00002.728094,00002.724999,00003.240257,00002.911722,00002.657240,-00000.403072,-00000.070173,-00000.558033,-00000.053968,-00000.082386,-00000.029333
0000000000703,00002.751611,00002.580583,00002.226428,00003.129313,00002.697778,00002.728372,00002.725276,00003.240866,00002.912315,00002.657428,-00000.402828,-00000.070002,-00000.557874,-00000.053935,-00000.082437,-00000.029319
0000000000704,00002.751372,00002.581343,00002.226422,00003.129166,00002.698151,00002.728391,00002.725394,00003.241308,00002.912649,00002.657553,-00000.402633,-00000.069897,-00000.557771,-00000.053924,-00000.082470,-00000.029688
0000000000705,00002.751314,00002.581773,00002.226588,00003.129085,00002.698593,00002.728266,00002.725630,00003.241464,00002.913154,00002.657713,-00000.402426,-00000.069751,-00000.557998,-00000.053896,-00000.082513,-00000.030038
0000000000706,00002.751836,00002.581695,00002.226946,00003.128960,00002.698547,00002.728282,00002.725368,00003.241840,00002.913076,00002.658182,-00000.402623,-00000.070024,-00000.558273,-00000.053887,-00000.082905,-00000.030352
0000000000707,00002.751424,00002.582061,00002.226724,00003.128890,00002.698561,00002.728175,00002.725568,00003.241610,00002.913506,00002.657955,-00000.402809,-00000.070263,-00000.558466,-00000.053863,-00000.083304,-00000.030651
0000000000708,00002.751869,00002.582720,00002.227029,00003.129510,00002.698885,00002.728915,00002.725708,00003.242293,00002.913802,00002.657992,-00000.402614,-00000.070495,-00000.558700,-00000.053855,-00000.083637,-00000.030918
0000000000709,00002.751881,00002.583395,00002.226840,00003.130176,00002.699260,00002.729186,00002.725879,00003.242460,00002.914531,00002.658162,-00000.402409,-00000.070336,-00000.558865,-00000.054198,-00000.083977,-00000.031172
0000000000710,00002.751896,00002.583956,00002.226737,00003.130340,00002.699536,00002.729453,00002.725998,00003.243042,00002.915145,00002.658193,-00000.402243,-00000.070171,-00000.559063,-00000.054191,-00000.083898,-00000.031037
0000000000711,00002.751906,00002.584530,00002.226939,00003.130182,00002.699854,00002.729322,00002.726506,00003.243547,00002.915403,00002.658337,-00000.402069,-00000.070398,-00000.559204,-00000.054483,-00000.083462,-00000.031253
0000000000712,00002.751557,00002.585008,00002.226851,00003.130685,00002.700089,00002.729549,00002.726607,00003.244042,00002.915926,00002.658364,-00000.401927,-00000.070620,-00000.559373,-00000.054840,-00000.083395,-00000.031501
0000000000713,00002.751566,00002.585134,00002.227023,00003.130550,00002.700723,00002.729437,00002.726677,00003.244471,00002.916146,00002.658487,-00000.401779,-00000.070813,-00000.559493,-00000.055089,-00000.083386,-00000.031685
0000000000714,00002.752357,00002.585540,00002.227311,00003.130978,00002.701286,00002.729630,00002.726763,00003.245256,00002.916229,00002.658872,-00000.401659,-00000.071003,-00000.559637,-00000.055392,-00000.083329,-00000.031896
0000000000715,00002.752727,00002.585648,00002.227458,00003.131227,00002.701463,00002.729898,00002.726460,00003.245622,00002.916415,00002.658614,-00000.401896,-00000.071167,-00000.559738,-00000.055604,-00000.083322,-00000.032052
0000000000716,00002.752674,00002.585994,00002.227703,00003.131228,00002.701942,00002.729700,00002.726896,00003.245563,00002.916849,00002.658579,-00000.401793,-00000.071328,-00000.559861,-00000.055863,-00000.083273,-00000.032232
0000000000717,00002.752989,00002.586448,00002.227828,00003.131802,00002.702093,00002.729927,00002.727001,00003.245875,00002.917370,00002.658360,-00000.401995,-00000.071468,-00000.559948,-00000.056043,-00000.083267,-00000.032365
0000000000718,00002.753308,00002.586743,00002.228036,00003.131803,00002.702864,00002.730121,00002.727372,00003.246188,00002.917376,00002.658693,-00000.402270,-00000.071606,-00000.560415,-00000.056263,-00000.083588,-00000.032518
0000000000719,00002.753939,00002.586767,00002.228505,00003.132292,00002.703355,00002.730678,00002.727461,00003.246816,00002.917458,00002.659232,-00000.402442,-00000.071725,-00000.560851,-00000.056416,-00000.083945,-00000.032269
0000000000720,00002.753847,00002.587380,00002.228320,00003.132656,00002.703648,00002.730480,00002.727777,00003.247083,00002.917826,00002.659153,-00000.402676,-00000.071842,-00000.561249,-00000.056604,-00000.084219,-00000.032036
0000000000721,00002.753659,00002.587763,00002.227994,00003.133072,00002.703703,00002.730592,00002.727853,00003.247255,00002.918258,00002.659248,-00000.402822,-00000.071943,-00000.561621,-00000.056734,-00000.084523,-00000.031824
0000000000722,00002.753943,00002.587923,00002.227836,00003.133019,00002.703590,00002.730786,00002.727759,00003.247482,00002.918208,00002.659181,-00000.403022,-00000.072043,-00000.561959,-00000.056894,-00000.084756,-00000.031989
0000000000723,00002.754146,00002.587886,00002.228284,00003.132648,00002.704000,00002.730881,00002.727824,00003.247991,00002.918213,00002.659262,-00000.403146,-00000.072129,-00000.561913,-00000.057005,-00000.085015,-00000.032171
0000000000724,00002.754388,00002.588022,00002.228150,00003.132602,00002.703904,00002.731046,00002.727744,00003.248185,00002.917808,00002.658842,-00000.403316,-00000.072214,-00000.562201,-00000.057141,-00000.085213,-00000.032311
0000000000725,00002.754197,00002.588354,00002.227805,00003.132649,00002.703890,00002.731127,00002.727799,00003.248255,00002.917813,00002.658912,-00000.403422,-00000.072287,-00000.562524,-00000.057598,-00000.085434,-00000.032466
0000000000726,00002.754404,00002.588107,00002.228054,00003.132611,00002.703808,00002.731268,00002.727368,00003.248783,00002.917831,00002.658917,-00000.403567,-00000.072359,-00000.562770,-00000.057714,-00000.085240,-00000.032586
0000000000727,00002.754604,00002.588026,00002.228123,00003.132288,00002.703796,00002.731336,00002.727052,00003.249205,00002.917834,00002.658976,-00000.403657,-00000.072422,-00000.563408,-00000.058103,-00000.085428,-00000.032718
0000000000728,00002.754417,00002.587816,00002.227972,00003.131892,00002.703726,00002.731456,00002.727048,00003.248929,00002.918212,00002.658980,-00000.403780,-00000.072483,-00000.563617,-00000.058564,-00000.085625,-00000.032819
0000000000729,00002.753862,00002.588110,00002.227669,00003.131980,00002.703716,00002.731152,00002.727142,00003.248563,00002.918215,00002.659030,-00000.403857,-00000.072537,-00000.563797,-00000.058533,-00000.085422,-00000.032932
0000000000730,00002.754429,00002.587931,00002.227903,00003.132369,00002.703657,00002.731254,00002.727139,00003.249053,00002.918175,00002.659397,-00000.403961,-00000.072589,-00000.563975,-00000.058563,-00000.085591,-00000.033018
0000000000731,00002.754319,00002.588181,00002.227644,00003.132443,00002.703648,00002.731358,00002.727219,00003.248742,00002.918177,00002.659440,-00000.404027,-00000.072634,-00000.564128,-00000.058536,-00000.085781,-00000.033114
0000000000732,00002.754075,00002.588029,00002.227843,00003.132049,00002.703960,00002.731082,00002.727216,00003.248797,00002.918142,00002.659752,-00000.404116,-00000.072679,-00000.564280,-00000.058562,-00000.085924,-00000.033187
0000000000733,00002.753982,00002.588242,00002.227624,00003.131750,00002.703590,00002.731170,00002.726921,00003.248532,00002.918145,00002.659425,-00000.404172,-00000.072717,-00000.564410,-00000.058539,-00000.086086,-00000.033269
0000000000734,00002.754138,00002.588475,00002.227793,00003.131777,00002.703856,00002.731298,00002.726918,00003.248578,00002.918115,00002.658965,-00000.404248,-00000.072755,-00000.564539,-00000.058560,-00000.086208,-00000.033332
0000000000735,00002.754058,00002.588657,00002.227606,00003.131522,00002.704267,00002.731011,00002.727393,00003.248715,00002.918117,00002.659050,-00000.404295,-00000.073151,-00000.564651,-00000.058904,-00000.086345,-00000.033401
0000000000736,00002.753828,00002.588855,00002.227387,00003.131545,00002.704493,00002.730757,00002.727391,00003.248392,00002.918092,00002.658659,-00000.404722,-00000.073546,-00000.565123,-00000.059285,-00000.086812,-00000.033091
0000000000737,00002.754123,00002.589010,00002.227228,00003.131691,00002.704480,00002.731237,00002.727432,00003.248509,00002.918093,00002.658731,-00000.404763,-00000.073883,-00000.565581,-00000.059578,-00000.086929,-00000.032788
0000000000738,00002.754290,00002.588453,00002.227405,00003.131347,00002.704309,00002.731384,00002.727068,00003.248596,00002.917709,00002.658398,-00000.404764,-00000.074219,-00000.565983,-00000.059902,-00000.086963,-00000.032887
0000000000739,00002.754178,00002.588584,00002.227632,00003.131109,00002.705024,00002.731068,00002.727466,00003.248696,00002.917710,00002.658459,-00000.404798,-00000.074143,-00000.566010,-00000.060151,-00000.086700,-00000.032991
0000000000740,00002.754320,00002.588836,00002.227420,00003.131179,00002.704879,00002.731193,00002.727518,00003.248770,00002.917746,00002.658538,-00000.404799,-00000.074429,-00000.565989,-00000.060427,-00000.086367,-00000.033076
0000000000741,00002.754225,00002.588948,00002.227613,00003.130976,00002.705124,00002.730923,00002.727494,00003.248855,00002.917747,00002.658591,-00000.404828,-00000.074364,-00000.566375,-00000.060639,-00000.086143,-00000.033165
0000000000742,00002.754346,00002.588799,00002.227795,00003.130674,00002.705364,00002.730667,00002.727539,00003.248918,00002.917415,00002.658658,-00000.405192,-00000.074608,-00000.566720,-00000.060874,-00000.085859,-00000.032874
0000000000743,00002.753902,00002.588895,00002.227597,00003.130864,00002.705572,00002.730800,00002.727518,00003.248628,00002.917416,00002.658340,-00000.405580,-00000.074916,-00000.567048,-00000.061055,-00000.086031,-00000.032949
0000000000744,00002.753642,00002.589131,00002.227389,00003.130606,00002.705776,00002.730582,00002.727919,00003.248682,00002.917496,00002.658397,-00000.405889,-00000.075123,-00000.567342,-00000.061255,-00000.085790,-00000.032702
0000000000745,00002.753990,00002.588849,00002.227221,00003.130768,00002.705591,00002.730696,00002.727539,00003.248797,00002.917497,00002.658489,-00000.406219,-00000.075385,-00000.567622,-00000.061408,-00000.085573,-00000.032403
0000000000746,00002.753769,00002.589051,00002.227406,00003.130548,00002.705765,00002.730510,00002.727517,00003.248480,00002.917564,00002.658538,-00000.406483,-00000.075562,-00000.567872,-00000.061579,-00000.085368,-00000.032555
0000000000747,00002.754065,00002.588811,00002.227626,00003.130323,00002.705970,00002.730244,00002.727194,00003.248578,00002.917202,00002.658616,-00000.406764,-00000.075785,-00000.568110,-00000.061710,-00000.085184,-00000.032664
0000000000748,00002.754240,00002.588982,00002.227784,00003.130862,00002.706118,00002.730811,00002.727538,00003.249034,00002.917260,00002.658658,-00000.406625,-00000.075935,-00000.568323,-00000.061855,-00000.085008,-00000.032793
0000000000749,00002.754492,00002.589141,00002.227970,00003.130670,00002.706292,00002.730585,00002.727625,00003.249118,00002.917315,00002.658724,-00000.406501,-00000.076125,-00000.568526,-00000.061966,-00000.084852,-00000.032886
0000000000750,00002.754640,00002.588924,00002.227742,00003.130766,00002.706418,00002.730705,00002.727556,00003.249143,00002.917001,00002.658760,-00000.406746,-00000.076253,-00000.568344,-00000.062090,-00000.084703,-00000.032633
0000000000751,00002.754855,00002.589059,00002.227901,00003.130966,00002.706930,00002.730875,00002.727993,00003.249577,00002.917048,00002.659179,-00000.407004,-00000.076415,-00000.568517,-00000.062184,-00000.084932,-00000.032349
0000000000752,00002.754619,00002.589237,00002.228070,00003.130684,00002.707400,00002.730252,00002.727933,00003.249598,00002.917144,00002.659209,-00000.406850,-00000.076524,-00000.568725,-00000.062289,-00000.085168,-00000.032134
0000000000753,00002.755164,00002.588989,00002.228205,00003.130854,00002.707472,00002.730396,00002.727943,00003.249968,00002.917183,00002.659566,-00000.406706,-00000.076661,-00000.568872,-00000.062370,-00000.085363,-00000.031892
0000000000754,00002.755688,00002.589141,00002.228349,00003.130978,00002.707509,00002.730591,00002.727892,00003.250349,00002.917265,00002.659592,-00000.406575,-00000.076754,-00000.569049,-00000.062460,-00000.085564,-00000.032072
0000000000755,00002.755790,00002.588930,00002.228464,00003.130760,00002.707934,00002.730714,00002.728263,00003.250663,00002.917298,00002.659896,-00000.406452,-00000.076871,-00000.569174,-00000.062528,-00000.085730,-00000.032229
0000000000756,00002.755874,00002.588696,00002.228223,00003.130865,00002.707603,00002.730880,00002.728220,00003.250625,00002.917731,00002.659555,-00000.406703,-00000.076950,-00000.569325,-00000.062605,-00000.085901,-00000.032382
0000000000757,00002.756323,00002.588879,00002.228321,00003.131405,00002.707602,00002.731348,00002.728173,00003.250530,00002.917759,00002.659451,-00000.406962,-00000.077050,-00000.569794,-00000.063026,-00000.086043,-00000.032516
0000000000758,00002.756394,00002.589406,00002.228479,00003.131131,00002.708045,00002.731127,00002.728499,00003.250497,00002.917764,00002.659886,-00000.407176,-00000.077480,-00000.570286,-00000.063453,-00000.086551,-00000.032283
0000000000759,00002.756414,00002.589562,00002.228563,00003.131591,00002.708044,00002.731162,00002.728459,00003.250416,00002.918152,00002.659798,-00000.407396,-00000.077927,-00000.570322,-00000.063812,-00000.087397,-00000.032034
0000000000760,00002.756837,00002.589647,00002.228697,00003.132084,00002.708059,00002.731336,00002.728374,00003.250751,00002.918156,00002.660168,-00000.407578,-00000.077931,-00000.570378,-00000.064176,-00000.087830,-00000.032199
0000000000761,00002.756854,00002.589780,00002.228405,00003.132475,00002.708058,00002.731366,00002.728340,00003.250683,00002.918123,00002.660093,-00000.407766,-00000.077949,-00000.570772,-00000.064481,-00000.087824,-00000.032350
0000000000762,00002.756851,00002.589853,00002.228520,00003.132532,00002.708071,00002.731515,00002.728267,00003.250605,00002.918852,00002.660408,-00000.407558,-00000.077952,-00000.570819,-00000.064791,-00000.088193,-00000.032490
0000000000763,00002.756866,00002.589966,00002.228634,00003.132865,00002.708070,00002.731540,00002.728238,00003.250546,00002.919187,00002.660707,-00000.407717,-00000.077967,-00000.571154,-00000.065051,-00000.088551,-00000.032619
0000000000764,00002.756864,00002.589665,00002.228732,00003.132551,00002.708081,00002.731667,00002.727814,00003.250843,00002.919082,00002.660976,-00000.407903,-00000.077970,-00000.571557,-00000.065315,-00000.088502,-00000.032738
0000000000765,00002.756876,00002.589761,00002.228829,00003.132471,00002.707718,00002.731688,00002.727426,00003.250793,00002.919004,00002.660867,-00000.408039,-00000.077983,-00000.571843,-00000.065536,-00000.088807,-00000.032847
0000000000766,00002.756874,00002.590231,00002.228912,00003.132929,00002.708090,00002.732159,00002.727790,00003.251046,00002.919641,00002.661096,-00000.408197,-00000.077985,-00000.572186,-00000.065761,-00000.089491,-00000.032949
0000000000767,00002.756884,00002.590313,00002.228995,00003.133225,00002.708143,00002.732540,00002.728186,00003.251003,00002.919937,00002.661003,-00000.408313,-00000.078359,-00000.572429,-00000.066312,-00000.090113,-00000.033042
0000000000768,00002.757246,00002.590712,00002.229066,00003.133615,00002.708097,00002.732578,00002.728133,00003.250855,00002.920116,00002.660835,-00000.408447,-00000.078724,-00000.572721,-00000.066866,-00000.090332,-00000.032766
0000000000769,00002.757617,00002.590782,00002.229499,00003.133503,00002.708868,00002.732539,00002.728470,00003.251182,00002.920006,00002.661482,-00000.408546,-00000.079042,-00000.573291,-00000.067335,-00000.090499,-00000.032845
0000000000770,00002.758288,00002.590760,00002.229922,00003.133472,00002.709191,00002.732571,00002.728425,00003.251056,00002.919795,00002.661702,-00000.408660,-00000.079352,-00000.573902,-00000.067807,-00000.090686,-00000.032973
0000000000771,00002.758241,00002.590819,00002.230291,00003.133015,00002.709485,00002.732176,00002.728712,00003.251334,00002.919701,00002.662252,-00000.408744,-00000.079261,-00000.574024,-00000.067843,-00000.091191,-00000.032677
0000000000772,00002.758086,00002.591163,00002.230288,00003.132988,00002.709760,00002.731841,00002.729036,00003.250864,00002.919522,00002.662439,-00000.408479,-00000.079162,-00000.574182,-00000.067882,-00000.091350,-00000.032786
0000000000773,00002.758047,00002.591576,00002.230602,00003.133324,00002.709648,00002.732230,00002.728918,00003.251101,00002.919805,00002.662545,-00000.408550,-00000.079084,-00000.574286,-00000.068276,-00000.091780,-00000.032897
0000000000774,00002.757915,00002.591868,00002.230600,00003.133302,00002.709519,00002.732307,00002.728831,00003.250701,00002.920015,00002.662342,-00000.408687,-00000.079363,-00000.574783,-00000.068309,-00000.092278,-00000.032627
0000000000775,00002.757881,00002.591858,00002.230867,00003.133225,00002.710149,00002.732275,00002.729093,00003.250903,00002.919893,00002.662795,-00000.408748,-00000.079659,-00000.574872,-00000.068644,-00000.092644,-00000.032722
0000000000776,00002.757769,00002.592107,00002.231228,00003.133569,00002.710402,00002.732341,00002.729382,00003.250925,00002.920072,00002.662984,-00000.408865,-00000.079534,-00000.574932,-00000.068673,-00000.093068,-00000.032854
0000000000777,00002.758103,00002.592097,00002.231093,00003.133866,00002.710213,00002.732314,00002.729242,00003.250734,00002.919968,00002.662644,-00000.408917,-00000.079423,-00000.575007,-00000.068595,-00000.093379,-00000.032572
0000000000778,00002.758733,00002.592309,00002.231037,00003.134159,00002.710066,00002.732733,00002.729126,00003.251115,00002.919758,00002.662806,-00000.408653,-00000.079316,-00000.574696,-00000.068619,-00000.093740,-00000.032685
0000000000779,00002.759018,00002.591939,00002.231285,00003.134049,00002.709904,00002.732710,00002.728644,00003.251315,00002.919669,00002.662516,-00000.408334,-00000.079222,-00000.574397,-00000.068553,-00000.094006,-00000.032808
0000000000780,00002.758828,00002.592119,00002.231238,00003.133936,00002.710142,00002.732341,00002.728907,00003.251278,00002.919853,00002.662654,-00000.408473,-00000.079131,-00000.574132,-00000.068574,-00000.094313,-00000.032904
0000000000781,00002.759071,00002.592166,00002.231086,00003.133480,00002.709642,00002.732321,00002.728497,00003.250722,00002.919415,00002.662044,-00000.408201,-00000.079051,-00000.573878,-00000.068518,-00000.094539,-00000.032646
0000000000782,00002.759272,00002.591594,00002.231045,00003.133020,00002.709844,00002.732370,00002.728358,00003.250690,00002.919208,00002.662161,-00000.408319,-00000.078974,-00000.574015,-00000.068535,-00000.094800,-00000.032365
0000000000783,00002.759116,00002.591997,00002.230916,00003.132995,00002.710144,00002.732353,00002.728735,00003.250580,00002.919561,00002.662006,-00000.408088,-00000.078906,-00000.573799,-00000.068487,-00000.095355,-00000.032508
0000000000784,00002.758925,00002.591873,00002.230882,00003.133329,00002.709953,00002.732757,00002.728617,00003.250553,00002.919748,00002.661742,-00000.407826,-00000.078840,-00000.573553,-00000.068502,-00000.095578,-00000.032631
0000000000785,00002.759154,00002.591491,00002.230772,00003.132944,00002.709846,00002.732743,00002.728574,00003.250459,00002.919685,00002.661972,-00000.407992,-00000.078782,-00000.573368,-00000.068461,-00000.095688,-00000.032390
0000000000786,00002.758629,00002.591385,00002.230379,00003.132866,00002.709683,00002.732724,00002.728111,00003.250436,00002.919482,00002.661385,-00000.408131,-00000.078726,-00000.573159,-00000.068474,-00000.095515,-00000.032132
0000000000787,00002.758461,00002.591422,00002.229923,00003.132902,00002.709592,00002.732350,00002.728438,00003.250356,00002.919791,00002.661219,-00000.407910,-00000.078676,-00000.573002,-00000.068439,-00000.095245,-00000.031927
0000000000788,00002.758377,00002.591332,00002.229952,00003.132472,00002.709816,00002.731971,00002.728406,00003.250336,00002.919618,00002.661445,-00000.407666,-00000.078629,-00000.572824,-00000.068087,-00000.095098,-00000.031708
0000000000789,00002.758234,00002.591364,00002.229926,00003.132140,00002.709738,00002.731652,00002.728322,00003.250268,00002.919156,00002.661665,-00000.407477,-00000.078587,-00000.572690,-00000.067695,-00000.094868,-00000.031533
0000000000790,00002.758162,00002.591650,00002.229951,00003.132137,00002.709930,00002.731329,00002.728658,00003.250251,00002.919009,00002.661495,-00000.407270,-00000.078546,-00000.572538,-00000.067395,-00000.094743,-00000.031709
0000000000791,00002.758403,00002.591677,00002.229929,00003.132217,00002.709863,00002.731420,00002.728586,00003.250556,00002.918978,00002.661683,-00000.407109,-00000.078510,-00000.572062,-00000.067061,-00000.094547,-00000.031560
0000000000792,00002.758342,00002.591558,00002.229950,00003.132215,00002.710026,00002.731146,00002.728509,00003.250542,00002.918852,00002.661901,-00000.406932,-00000.078113,-00000.571933,-00000.066806,-00000.094441,-00000.031348
0000000000793,00002.758185,00002.591943,00002.229931,00003.132282,00002.710332,00002.730861,00002.728810,00003.250439,00002.919189,00002.662061,-00000.406796,-00000.077719,-00000.571890,-00000.066522,-00000.094274,-00000.031584
0000000000794,00002.758496,00002.591842,00002.230312,00003.132280,00002.710108,00002.730990,00002.728382,00003.250789,00002.919082,00002.661883,-00000.406645,-00000.077381,-00000.571417,-00000.066305,-00000.094183,-00000.031403
0000000000795,00002.758724,00002.591808,00002.230659,00003.132338,00002.710369,00002.731110,00002.728276,00003.251064,00002.919006,00002.662019,-00000.406166,-00000.077046,-00000.571018,-00000.065700,-00000.094042,-00000.031241
0000000000796,00002.758626,00002.591358,00002.230620,00003.132336,00002.709815,00002.731220,00002.728274,00003.251363,00002.918915,00002.661868,-00000.405675,-00000.076758,-00000.570253,-00000.065515,-00000.093602,-00000.031086
0000000000797,00002.758458,00002.591329,00002.230190,00003.132386,00002.709312,00002.731322,00002.727821,00003.251234,00002.918850,00002.661621,-00000.405630,-00000.076473,-00000.569913,-00000.065363,-00000.093118,-00000.031312
0000000000798,00002.758374,00002.591310,00002.230520,00003.132021,00002.709566,00002.731053,00002.727820,00003.251125,00002.918773,00002.661856,-00000.405575,-00000.076228,-00000.569624,-00000.065206,-00000.093106,-00000.031180
0000000000799,00002.758232,00002.590922,00002.230516,00003.131700,00002.709500,00002.730777,00002.727797,00003.251016,00002.918355,00002.661645,-00000.405536,-00000.075986,-00000.569335,-00000.065076,-00000.092695,-00000.031009
0000000000800,00002.758160,00002.591268,00002.230434,00003.131753,00002.709354,00002.730911,00002.727795,00003.250923,00002.918652,00002.661482,-00000.405489,-00000.075777,-00000.569089,-00000.064942,-00000.092685,-00000.030897
0000000000801,00002.758039,00002.591663,00002.230431,00003.131843,00002.709298,00002.731039,00002.727776,00003.250830,00002.918659,00002.661303,-00000.405457,-00000.075570,-00000.568843,-00000.064832,-00000.092697,-00000.030751
0000000000802,00002.757978,00002.591233,00002.230361,00003.131525,00002.708810,00002.730789,00002.727412,00003.250751,00002.918186,00002.661164,-00000.405417,-00000.075393,-00000.568633,-00000.064355,-00000.092326,-00000.030656
0000000000803,00002.758237,00002.590844,00002.230359,00003.131238,00002.708400,00002.730898,00002.727032,00003.250672,00002.917829,00002.661012,-00000.405026,-00000.075217,-00000.568061,-00000.063898,-00000.091974,-00000.030532
0000000000804,00002.758185,00002.590840,00002.230299,00003.131331,00002.708710,00002.730686,00002.727086,00003.250605,00002.918152,00002.660893,-00000.404629,-00000.075066,-00000.567520,-00000.063493,-00000.091658,-00000.030451
0000000000805,00002.758406,00002.590871,00002.230297,00003.131449,00002.708361,00002.730779,00002.727125,00003.250537,00002.918211,00002.660764,-00000.404660,-00000.074916,-00000.567033,-00000.063104,-00000.091721,-00000.030346
0000000000806,00002.757999,00002.591231,00002.230247,00003.131528,00002.708263,00002.730599,00002.727170,00003.250117,00002.918123,00002.660663,-00000.404685,-00000.074787,-00000.566935,-00000.062758,-00000.092177,-00000.030277
0000000000807,00002.757824,00002.591258,00002.230245,00003.131266,00002.708691,00002.730315,00002.727204,00003.250060,00002.917811,00002.660915,-00000.404710,-00000.074660,-00000.566883,-00000.062790,-00000.092594,-00000.030187
0000000000808,00002.758204,00002.590838,00002.230202,00003.131333,00002.708607,00002.730161,00002.727243,00003.250065,00002.917373,00002.661192,-00000.405094,-00000.074550,-00000.567162,-00000.062859,-00000.093345,-00000.030128
0000000000809,00002.758417,00002.590861,00002.230563,00003.131473,00002.708971,00002.730282,00002.727272,00003.250379,00002.917470,00002.661407,-00000.405116,-00000.074442,-00000.567118,-00000.062886,-00000.093699,-00000.029689
0000000000810,00002.758378,00002.590504,00002.230526,00003.131167,00002.709263,00002.730152,00002.727304,00003.250383,00002.917460,00002.661643,-00000.405081,-00000.074348,-00000.566993,-00000.062581,-00000.093976,-00000.029639
0000000000811,00002.758560,00002.590161,00002.230834,00003.131286,00002.709210,00002.730255,00002.727329,00003.250288,00002.917542,00002.661826,-00000.405099,-00000.074256,-00000.566593,-00000.062242,-00000.093915,-00000.029628
0000000000812,00002.758526,00002.590219,00002.230803,00003.131389,00002.709458,00002.730143,00002.727357,00003.250654,00002.917534,00002.662026,-00000.405069,-00000.074176,-00000.566124,-00000.061983,-00000.093788,-00000.029585
0000000000813,00002.758318,00002.590653,00002.230702,00003.131853,00002.709414,00002.730231,00002.727378,00003.250210,00002.917967,00002.661819,-00000.405085,-00000.074098,-00000.566146,-00000.061693,-00000.093736,-00000.029575
0000000000814,00002.758652,00002.590703,00002.231038,00003.132303,00002.709262,00002.730499,00002.727401,00003.250522,00002.917960,00002.661627,-00000.405059,-00000.074030,-00000.566109,-00000.061836,-00000.093628,-00000.029539
0000000000815,00002.758475,00002.591071,00002.230952,00003.132698,00002.709224,00002.730574,00002.727419,00003.250144,00002.918328,00002.661088,-00000.405072,-00000.073963,-00000.566128,-00000.061952,-00000.093947,-00000.029531
0000000000816,00002.758759,00002.591114,00002.231238,00003.132356,00002.709458,00002.730802,00002.727439,00003.250047,00002.918323,00002.660925,-00000.405050,-00000.073906,-00000.566097,-00000.061710,-00000.094217,-00000.029137
0000000000817,00002.758971,00002.591065,00002.231528,00003.132329,00002.709425,00002.730866,00002.727454,00003.250451,00002.917911,00002.661192,-00000.405062,-00000.073849,-00000.566113,-00000.061447,-00000.094126,-00000.029131
0000000000818,00002.759213,00002.591101,00002.231771,00003.132401,00002.709262,00002.731060,00002.727472,00003.250731,00002.917906,00002.661053,-00000.405043,-00000.073800,-00000.566086,-00000.061241,-00000.093993,-00000.029158
0000000000819,00002.759394,00002.591060,00002.231655,00003.132378,00002.709234,00002.731114,00002.727484,00003.251075,00002.917918,00002.660917,-00000.405053,-00000.073751,-00000.566100,-00000.061017,-00000.093915,-00000.028790
0000000000820,00002.759600,00002.591091,00002.231863,00003.132439,00002.709457,00002.731279,00002.727499,00003.251313,00002.917913,00002.660798,-00000.405036,-00000.073709,-00000.565714,-00000.060842,-00000.093440,-00000.028813
0000000000821,00002.759754,00002.591056,00002.232126,00003.132420,00002.709797,00002.731326,00002.727510,00003.251243,00002.917924,00002.661046,-00000.404682,-00000.073668,-00000.565363,-00000.060651,-00000.093011,-00000.028862
0000000000822,00002.759566,00002.591082,00002.232303,00003.132471,00002.709987,00002.731466,00002.727523,00003.251083,00002.917920,00002.661308,-00000.404668,-00000.073270,-00000.565035,-00000.060502,-00000.092606,-00000.028882
0000000000823,00002.759334,00002.591414,00002.232165,00003.132455,00002.709913,00002.731143,00002.727895,00003.251023,00002.918292,00002.661155,-00000.404729,-00000.072872,-00000.564736,-00000.060339,-00000.092240,-00000.028924
0000000000824,00002.759538,00002.591437,00002.232315,00003.132136,00002.710075,00002.731263,00002.727905,00003.251250,00002.918289,00002.661378,-00000.404718,-00000.072896,-00000.564457,-00000.060212,-00000.091896,-00000.028941
0000000000825,00002.759340,00002.591357,00002.232197,00003.131760,00002.710375,00002.730987,00002.727859,00003.251199,00002.918242,00002.661249,-00000.404770,-00000.072920,-00000.564565,-00000.060074,-00000.091948,-00000.028976
0000000000826,00002.759150,00002.591376,00002.231600,00003.131851,00002.709787,00002.730726,00002.727868,00003.250667,00002.918239,00002.660713,-00000.404760,-00000.072940,-00000.564690,-00000.059965,-00000.091654,-00000.028628
0000000000827,00002.758982,00002.591671,00002.231500,00003.131893,00002.709679,00002.730492,00002.727829,00003.250623,00002.918563,00002.660602,-00000.404804,-00000.072960,-00000.564419,-00000.059848,-00000.091336,-00000.028658
0000000000828,00002.758458,00002.591688,00002.231354,00003.131971,00002.709542,00002.730633,00002.727837,00003.250170,00002.918560,00002.660146,-00000.404796,-00000.072977,-00000.564163,-00000.059756,-00000.091086,-00000.028362
0000000000829,00002.758315,00002.591213,00002.231268,00003.131644,00002.709450,00002.730796,00002.727441,00003.250133,00002.918110,00002.660052,-00000.404833,-00000.072632,-00000.563932,-00000.059655,-00000.090815,-00000.028388
0000000000830,00002.758594,00002.591227,00002.231144,00003.131710,00002.708970,00002.730916,00002.727447,00003.249747,00002.917745,00002.660027,-00000.404826,-00000.072284,-00000.563714,-00000.059577,-00000.090602,-00000.028498
0000000000831,00002.758472,00002.591186,00002.231072,00003.131795,00002.708530,00002.731055,00002.727473,00003.249353,00002.917362,00002.659947,-00000.404858,-00000.071990,-00000.563518,-00000.059492,-00000.090371,-00000.028520
0000000000832,00002.758710,00002.590835,00002.230966,00003.131851,00002.708484,00002.730794,00002.727116,00003.249387,00002.917051,00002.659925,-00000.404852,-00000.071694,-00000.563332,-00000.059425,-00000.090190,-00000.028614
0000000000833,00002.758606,00002.591163,00002.230904,00003.132286,00002.708834,00002.730187,00002.727500,00003.249052,00002.917088,00002.659857,-00000.404880,-00000.071443,-00000.563165,-00000.059352,-00000.089993,-00000.028632
0000000000834,00002.758446,00002.591227,00002.230814,00003.132697,00002.708795,00002.729965,00002.727559,00003.249081,00002.916823,00002.659839,-00000.404874,-00000.071554,-00000.563007,-00000.059295,-00000.089839,-00000.028712
0000000000835,00002.758358,00002.591143,00002.231124,00003.132704,00002.708731,00002.729448,00002.727523,00003.249158,00002.916492,00002.660144,-00000.404898,-00000.071703,-00000.562865,-00000.059234,-00000.090035,-00000.028366
0000000000836,00002.758221,00002.591197,00002.231047,00003.132328,00002.709060,00002.728896,00002.727573,00003.249183,00002.916267,00002.660128,-00000.404530,-00000.071435,-00000.562730,-00000.058822,-00000.090266,-00000.028071
0000000000837,00002.758146,00002.591126,00002.230586,00003.132697,00002.709005,00002.728818,00002.727543,00003.248885,00002.916347,00002.659662,-00000.404187,-00000.071199,-00000.562247,-00000.058407,-00000.090070,-00000.027775
0000000000838,00002.758030,00002.591172,00002.230521,00003.133103,00002.708561,00002.728712,00002.727586,00003.248544,00002.916155,00002.659648,-00000.403875,-00000.070971,-00000.561769,-00000.058057,-00000.089904,-00000.027525
0000000000839,00002.757603,00002.591112,00002.230491,00003.132691,00002.708877,00002.728283,00002.727560,00003.248291,00002.915861,00002.659614,-00000.403583,-00000.070770,-00000.561720,-00000.057703,-00000.089737,-00000.027636
0000000000840,00002.757504,00002.591151,00002.230435,00003.133036,00002.708498,00002.728192,00002.727596,00003.248363,00002.916061,00002.659240,-00000.403679,-00000.070575,-00000.561676,-00000.057405,-00000.089596,-00000.027422
0000000000841,00002.757503,00002.590737,00002.230409,00003.132686,00002.708404,00002.727827,00002.727574,00003.248510,00002.915447,00002.659574,-00000.403794,-00000.070405,-00000.561635,-00000.057467,-00000.089816,-00000.027154
0000000000842,00002.757419,00002.590770,00002.230362,00003.132254,00002.708807,00002.727387,00002.727605,00003.248571,00002.915254,00002.659618,-00000.403876,-00000.070602,-00000.561598,-00000.057576,-00000.090059,-00000.027335
0000000000843,00002.757419,00002.591143,00002.230340,00003.132319,00002.709090,00002.727076,00002.727949,00003.248697,00002.915095,00002.659540,-00000.403973,-00000.070457,-00000.561562,-00000.057629,-00000.090247,-00000.027107
0000000000844,00002.757347,00002.591172,00002.229937,00003.132677,00002.709071,00002.727064,00002.727976,00003.248386,00002.914931,00002.659577,-00000.404043,-00000.070624,-00000.561530,-00000.057359,-00000.090454,-00000.026899
0000000000845,00002.756984,00002.591126,00002.229919,00003.132732,00002.708949,00002.727162,00002.727906,00003.247768,00002.915158,00002.659148,-00000.403763,-00000.070501,-00000.561500,-00000.057404,-00000.090251,-00000.026704
0000000000846,00002.756923,00002.590788,00002.229938,00003.132674,00002.708932,00002.726789,00002.727565,00003.247503,00002.915018,00002.659180,-00000.403460,-00000.070281,-00000.561473,-00000.057174,-00000.090064,-00000.026527
0000000000847,00002.756614,00002.591112,00002.229560,00003.132721,00002.708828,00002.726510,00002.727506,00003.247339,00002.914849,00002.659177,-00000.403222,-00000.070175,-00000.561447,-00000.057212,-00000.089891,-00000.026361
0000000000848,00002.756199,00002.590824,00002.229577,00003.132309,00002.708814,00002.726193,00002.727579,00003.247114,00002.914367,00002.659204,-00000.403326,-00000.069988,-00000.561425,-00000.057016,-00000.090095,-00000.026210
0000000000849,00002.756298,00002.590374,00002.229617,00003.131986,00002.708726,00002.725955,00002.727528,00003.246975,00002.913860,00002.659202,-00000.403486,-00000.070261,-00000.561403,-00000.057049,-00000.090310,-00000.026432
0000000000850,00002.756308,00002.590854,00002.229268,00003.132361,00002.708714,00002.725685,00002.727591,00003.246783,00002.914175,00002.659225,-00000.403213,-00000.070465,-00000.561383,-00000.057245,-00000.090846,-00000.026303
0000000000851,00002.756393,00002.590472,00002.229303,00003.132086,00002.708638,00002.725483,00002.727185,00003.246664,00002.914107,00002.659223,-00000.403349,-00000.070697,-00000.561364,-00000.057273,-00000.091030,-00000.026130
0000000000852,00002.756401,00002.590518,00002.229369,00003.132042,00002.708628,00002.725615,00002.726875,00003.246864,00002.914012,00002.659242,-00000.403478,-00000.070508,-00000.561348,-00000.057077,-00000.091124,-00000.026020
0000000000853,00002.756473,00002.590917,00002.229036,00003.132534,00002.708564,00002.725443,00002.726892,00003.246400,00002.913954,00002.658878,-00000.403232,-00000.070343,-00000.561332,-00000.057100,-00000.091280,-00000.025872
0000000000854,00002.756480,00002.590594,00002.229092,00003.132496,00002.708192,00002.725193,00002.726628,00003.246207,00002.913511,00002.658895,-00000.402979,-00000.070181,-00000.561318,-00000.056934,-00000.091360,-00000.025779
0000000000855,00002.756179,00002.590571,00002.229171,00003.132552,00002.708501,00002.725047,00002.726643,00003.246538,00002.913461,00002.659310,-00000.402769,-00000.070041,-00000.561304,-00000.056591,-00000.091130,-00000.025653
0000000000856,00002.755822,00002.591022,00002.229219,00003.132520,00002.708547,00002.724834,00002.727144,00003.246373,00002.913447,00002.659324,-00000.402917,-00000.069904,-00000.561292,-00000.056812,-00000.090835,-00000.025573
0000000000857,00002.755928,00002.591365,00002.228923,00003.132931,00002.708084,00002.725072,00002.727156,00003.246292,00002.913767,00002.659315,-00000.403101,-00000.069784,-00000.561281,-00000.056883,-00000.091002,-00000.025466
0000000000858,00002.755987,00002.591748,00002.228964,00003.133266,00002.708124,00002.725254,00002.727220,00003.246515,00002.913755,00002.659327,-00000.403227,-00000.069667,-00000.561270,-00000.057071,-00000.091114,-00000.025399
0000000000859,00002.756441,00002.591678,00002.229438,00003.133253,00002.708092,00002.725456,00002.726868,00003.246809,00002.913664,00002.659682,-00000.403021,-00000.069928,-00000.561261,-00000.056769,-00000.091256,-00000.025307
0000000000860,00002.756128,00002.591641,00002.229472,00003.133176,00002.708126,00002.725248,00002.727285,00003.246999,00002.914017,00002.659692,-00000.403128,-00000.070191,-00000.561252,-00000.056929,-00000.091352,-00000.025250
0000000000861,00002.755788,00002.591582,00002.229150,00003.133164,00002.707736,00002.725421,00002.726985,00003.247248,00002.913940,00002.659631,-00000.403315,-00000.070051,-00000.561244,-00000.057034,-00000.091473,-00000.025172
0000000000862,00002.756248,00002.591551,00002.229543,00003.133462,00002.708491,00002.725606,00002.727340,00003.247773,00002.914240,00002.660003,-00000.403044,-00000.069912,-00000.561236,-00000.057171,-00000.091191,-00000.025123
0000000000863,00002.756684,00002.591500,00002.229631,00003.133452,00002.708159,00002.725753,00002.727085,00003.247986,00002.914538,00002.659951,-00000.402840,-00000.069793,-00000.561229,-00000.056897,-00000.090931,-00000.025057
0000000000864,00002.756350,00002.591473,00002.229602,00003.132979,00002.708075,00002.725186,00002.727025,00003.247707,00002.914430,00002.659905,-00000.402609,-00000.069674,-00000.561223,-00000.057014,-00000.091054,-00000.025015
0000000000865,00002.756721,00002.591067,00002.229678,00003.132608,00002.708156,00002.724948,00002.726807,00003.247888,00002.913958,00002.659861,-00000.402436,-00000.069573,-00000.561217,-00000.057144,-00000.090833,-00000.025322
0000000000866,00002.756800,00002.591044,00002.229653,00003.132206,00002.708448,00002.724827,00002.726756,00003.248013,00002.913867,00002.659821,-00000.402239,-00000.069472,-00000.561211,-00000.056880,-00000.090938,-00000.025286
0000000000867,00002.756753,00002.591061,00002.229718,00003.132253,00002.708516,00002.724988,00002.726571,00003.248167,00002.913827,00002.659784,-00000.402092,-00000.069385,-00000.561206,-00000.056991,-00000.091112,-00000.025184
0000000000868,00002.756820,00002.591405,00002.229697,00003.132636,00002.708402,00002.724885,00002.726527,00003.248274,00002.914112,00002.659750,-00000.401924,-00000.069300,-00000.561202,-00000.056766,-00000.091201,-00000.025154
0000000000869,00002.756780,00002.591782,00002.229751,00003.132676,00002.708460,00002.724659,00002.726732,00003.248405,00002.914441,00002.659718,-00000.401799,-00000.069226,-00000.561197,-00000.056498,-00000.091350,-00000.025430
0000000000870,00002.756837,00002.592075,00002.229734,00003.133002,00002.708362,00002.724935,00002.726695,00003.248495,00002.914684,00002.659690,-00000.401656,-00000.069153,-00000.561193,-00000.056306,-00000.091063,-00000.025404
0000000000871,00002.756803,00002.592033,00002.229780,00003.132673,00002.708775,00002.724742,00002.726870,00003.248607,00002.914602,00002.660025,-00000.401549,-00000.069090,-00000.560827,-00000.056078,-00000.090827,-00000.025277
0000000000872,00002.756851,00002.592282,00002.229765,00003.132588,00002.708692,00002.724977,00002.726838,00003.248322,00002.914808,00002.660001,-00000.401428,-00000.069028,-00000.560461,-00000.055915,-00000.090220,-00000.025255
0000000000873,00002.756822,00002.591884,00002.229805,00003.132308,00002.709043,00002.724813,00002.726987,00003.248417,00002.914738,00002.660287,-00000.401337,-00000.068975,-00000.560511,-00000.055721,-00000.089656,-00000.025146
0000000000874,00002.756863,00002.592096,00002.229792,00003.132235,00002.708972,00002.725012,00002.726960,00003.248174,00002.914914,00002.659903,-00000.401234,-00000.068922,-00000.560562,-00000.055582,-00000.089139,-00000.025127
0000000000875,00002.756476,00002.592483,00002.229463,00003.132360,00002.708909,00002.724510,00002.727086,00003.247892,00002.914854,00002.659784,-00000.401156,-00000.068876,-00000.560243,-00000.055416,-00000.089022,-00000.025035
0000000000876,00002.756511,00002.592300,00002.229452,00003.132298,00002.708486,00002.724680,00002.726701,00003.248048,00002.914641,00002.659820,-00000.401068,-00000.068831,-00000.559924,-00000.055298,-00000.088945,-00000.025019
0000000000877,00002.756544,00002.592629,00002.229534,00003.132041,00002.708431,00002.724615,00002.727171,00003.247445,00002.914590,00002.659718,-00000.401002,-00000.068793,-00000.559652,-00000.055157,-00000.088845,-00000.024940
0000000000878,00002.756574,00002.592474,00002.229525,00003.131626,00002.708797,00002.724397,00002.727205,00003.246852,00002.914046,00002.659749,-00000.400927,-00000.068754,-00000.559380,-00000.055057,-00000.088779,-00000.024926
0000000000879,00002.756602,00002.592391,00002.229595,00003.131407,00002.708751,00002.724342,00002.726881,00003.246339,00002.913640,00002.659662,-00000.400871,-00000.068721,-00000.559511,-00000.054937,-00000.088331,-00000.024859
0000000000880,00002.756627,00002.592259,00002.229225,00003.131417,00002.708336,00002.724519,00002.726910,00003.245834,00002.913539,00002.659689,-00000.400808,-00000.068689,-00000.559280,-00000.054851,-00000.087913,-00000.024848
0000000000881,00002.756651,00002.591826,00002.229284,00003.131593,00002.708297,00002.724835,00002.726996,00003.245760,00002.913194,00002.659978,-00000.400760,-00000.068661,-00000.559029,-00000.054749,-00000.087531,-00000.024791
0000000000882,00002.756673,00002.591351,00002.229332,00003.131238,00002.707944,00002.725348,00002.726658,00003.245693,00002.912745,00002.659637,-00000.400706,-00000.068633,-00000.558832,-00000.054676,-00000.087175,-00000.024781
0000000000883,00002.756693,00002.590982,00002.229383,00003.131389,00002.707548,00002.725980,00002.726369,00003.245630,00002.912451,00002.659521,-00000.400665,-00000.068609,-00000.558981,-00000.054590,-00000.087213,-00000.024732
0000000000884,00002.756712,00002.590578,00002.229060,00003.131449,00002.707247,00002.726417,00002.726081,00003.245211,00002.912432,00002.659231,-00000.400619,-00000.068585,-00000.559176,-00000.054890,-00000.087273,-00000.024724
0000000000885,00002.756729,00002.590264,00002.229103,00003.131215,00002.707273,00002.726592,00002.725835,00003.245157,00002.912181,00002.659131,-00000.400584,-00000.068565,-00000.559303,-00000.054816,-00000.087305,-00000.024682
0000000000886,00002.756745,00002.590282,00002.229554,00003.131266,00002.707380,00002.726601,00002.726315,00003.245162,00002.911803,00002.659248,-00000.400908,-00000.068545,-00000.559469,-00000.055072,-00000.087356,-00000.024675
0000000000887,00002.756760,00002.590015,00002.229591,00003.131066,00002.707401,00002.726750,00002.726468,00003.244754,00002.911589,00002.659163,-00000.400878,-00000.068890,-00000.559577,-00000.055372,-00000.087383,-00000.024640
0000000000888,00002.756410,00002.590030,00002.229612,00003.130748,00002.707493,00002.726758,00002.726877,00003.244396,00002.911630,00002.659262,-00000.400791,-00000.068873,-00000.559718,-00000.055590,-00000.087789,-00000.024634
0000000000889,00002.756423,00002.590166,00002.229644,00003.130940,00002.707148,00002.727248,00002.726645,00003.244411,00002.911448,00002.659190,-00000.400766,-00000.068805,-00000.560173,-00000.055845,-00000.088176,-00000.024604
0000000000890,00002.756125,00002.590179,00002.229299,00003.131032,00002.706863,00002.727255,00002.726631,00003.244106,00002.911482,00002.658911,-00000.401054,-00000.068790,-00000.560293,-00000.056031,-00000.088158,-00000.024599
0000000000891,00002.756136,00002.589931,00002.229326,00003.131196,00002.706570,00002.727671,00002.726433,00003.243756,00002.911328,00002.658850,-00000.401395,-00000.068732,-00000.560680,-00000.056248,-00000.088124,-00000.024573
0000000000892,00002.756245,00002.589580,00002.229032,00003.131273,00002.706327,00002.727677,00002.726058,00003.243497,00002.910994,00002.658613,-00000.401641,-00000.069082,-00000.561146,-00000.056406,-00000.088835,-00000.024569
0000000000893,00002.756255,00002.589369,00002.228692,00003.131413,00002.706078,00002.727669,00002.725889,00003.243199,00002.910862,00002.658198,-00000.401931,-00000.069395,-00000.561475,-00000.056591,-00000.089532,-00000.024547
0000000000894,00002.756348,00002.589070,00002.228805,00003.131116,00002.705871,00002.727674,00002.725570,00003.242978,00002.910578,00002.657996,-00000.402140,-00000.069693,-00000.561871,-00000.057088,-00000.090137,-00000.024543
0000000000895,00002.755993,00002.589253,00002.228878,00003.130872,00002.706021,00002.727305,00002.725789,00003.242361,00002.910466,00002.657642,-00000.402388,-00000.069960,-00000.562514,-00000.057609,-00000.090730,-00000.024525
0000000000896,00002.756072,00002.589361,00002.228975,00003.130983,00002.706208,00002.727309,00002.725880,00003.242536,00002.910225,00002.657833,-00000.402566,-00000.070214,-00000.562852,-00000.058032,-00000.091246,-00000.024522
0000000000897,00002.756133,00002.589155,00002.229037,00003.130775,00002.706699,00002.727357,00002.726067,00003.242374,00002.910129,00002.657895,-00000.402776,-00000.070441,-00000.563037,-00000.058475,-00000.091388,-00000.024506
0000000000898,00002.756200,00002.588884,00002.229119,00003.130506,00002.706495,00002.727723,00002.726144,00003.242885,00002.909923,00002.658058,-00000.402565,-00000.070657,-00000.563324,-00000.058835,-00000.091101,-00000.024503
0000000000899,00002.755889,00002.589071,00002.229172,00003.130329,00002.706550,00002.727401,00002.726666,00003.242748,00002.910205,00002.657748,-00000.402382,-00000.070850,-00000.563481,-00000.059212,-00000.090859,-00000.024490
0000000000900,00002.755584,00002.589203,00002.229242,00003.130463,00002.706377,00002.727351,00002.727095,00003.242457,00002.910030,00002.657523,-00000.402565,-00000.070671,-00000.563725,-00000.059519,-00000.090615,-00000.024488
0000000000901,00002.755319,00002.589362,00002.229287,00003.130313,00002.706424,00002.727439,00002.727176,00003.242340,00002.909907,00002.657622,-00000.402771,-00000.070835,-00000.563859,-00000.059840,-00000.090772,-00000.024113
0000000000902,00002.755059,00002.589837,00002.229346,00003.130427,00002.706639,00002.727396,00002.727178,00003.242093,00002.909758,00002.657431,-00000.402927,-00000.071046,-00000.564067,-00000.059738,-00000.091289,-00000.024111
0000000000903,00002.754833,00002.589973,00002.229385,00003.130661,00002.706316,00002.727472,00002.727248,00003.241993,00002.910016,00002.657153,-00000.403103,-00000.071186,-00000.564181,-00000.059649,-00000.091786,-00000.024156
0000000000904,00002.755338,00002.589652,00002.229435,00003.130758,00002.706136,00002.727435,00002.727249,00003.242146,00002.909889,00002.657353,-00000.402872,-00000.071003,-00000.564359,-00000.059562,-00000.092226,-00000.023791
0000000000905,00002.755508,00002.589404,00002.229105,00003.130958,00002.705498,00002.727499,00002.726946,00003.242061,00002.910108,00002.657116,-00000.402659,-00000.070759,-00000.564093,-00000.059486,-00000.092649,-00000.023829
0000000000906,00002.755575,00002.589494,00002.228785,00003.131404,00002.705346,00002.727468,00002.726584,00003.242191,00002.910363,00002.656923,-00000.402463,-00000.070603,-00000.563881,-00000.059412,-00000.092661,-00000.023881
0000000000907,00002.755720,00002.589646,00002.228504,00003.131574,00002.705165,00002.727523,00002.726326,00003.241755,00002.910187,00002.656721,-00000.402282,-00000.070758,-00000.563655,-00000.059348,-00000.092658,-00000.023913
0000000000908,00002.755414,00002.589722,00002.228232,00003.131590,00002.705035,00002.727133,00002.726381,00003.241503,00002.910404,00002.656920,-00000.402115,-00000.070988,-00000.563837,-00000.059285,-00000.093031,-00000.023958
0000000000909,00002.755640,00002.590280,00002.228487,00003.131749,00002.705134,00002.726848,00002.726208,00003.242006,00002.910802,00002.656555,-00000.401819,-00000.070590,-00000.563437,-00000.059176,-00000.092621,-00000.024024
0000000000910,00002.755383,00002.590753,00002.228592,00003.131872,00002.705003,00002.726525,00002.726383,00003.241946,00002.910983,00002.656409,-00000.401324,-00000.070394,-00000.563273,-00000.059129,-00000.091893,-00000.024047
0000000000911,00002.755470,00002.590391,00002.228704,00003.131521,00002.704855,00002.726606,00002.726061,00003.242072,00002.910778,00002.656244,-00000.401203,-00000.070614,-00000.562733,-00000.059084,-00000.091546,-00000.024079
0000000000912,00002.755251,00002.590431,00002.228793,00003.131989,00002.704744,00002.726693,00002.725847,00003.242383,00002.910932,00002.656482,-00000.401145,-00000.070447,-00000.562231,-00000.059044,-00000.091289,-00000.024099
0000000000913,00002.755325,00002.590123,00002.228888,00003.132053,00002.704618,00002.727125,00002.725572,00003.242490,00002.910757,00002.656705,-00000.401043,-00000.070272,-00000.562134,-00000.059005,-00000.090994,-00000.024127
0000000000914,00002.755864,00002.590157,00002.228964,00003.132088,00002.704886,00002.727562,00002.725753,00003.242755,00002.910888,00002.656908,-00000.400993,-00000.070130,-00000.562070,-00000.058971,-00000.091138,-00000.024143
0000000000915,00002.755927,00002.590621,00002.229045,00003.132143,00002.705141,00002.727567,00002.726245,00003.242847,00002.911465,00002.657097,-00000.400906,-00000.069981,-00000.561987,-00000.058575,-00000.090886,-00000.024167
0000000000916,00002.756023,00002.590650,00002.229110,00003.132173,00002.705007,00002.727576,00002.726036,00003.243072,00002.911577,00002.656907,-00000.400501,-00000.069860,-00000.561932,-00000.058183,-00000.090283,-00000.024181
0000000000917,00002.756077,00002.590682,00002.229542,00003.132219,00002.705587,00002.727580,00002.726455,00003.243513,00002.912068,00002.657068,-00000.400426,-00000.069733,-00000.561862,-00000.057847,-00000.089706,-00000.024201
0000000000918,00002.756158,00002.590344,00002.229597,00003.131882,00002.705473,00002.727225,00002.726277,00003.244068,00002.911800,00002.657269,-00000.400444,-00000.069630,-00000.561815,-00000.057513,-00000.089193,-00000.024213
0000000000919,00002.755841,00002.590371,00002.229239,00003.131559,00002.705241,00002.726866,00002.725908,00003.243717,00002.911492,00002.656681,-00000.400381,-00000.069522,-00000.561756,-00000.057226,-00000.088702,-00000.024230
0000000000920,00002.755911,00002.590446,00002.228923,00003.131635,00002.705143,00002.727289,00002.726120,00003.244189,00002.911990,00002.656489,-00000.400034,-00000.069434,-00000.561353,-00000.057305,-00000.088265,-00000.024241
0000000000921,00002.756004,00002.590469,00002.228981,00003.131359,00002.705309,00002.727346,00002.726168,00003.244617,00002.912091,00002.656714,-00000.399979,-00000.069342,-00000.561302,-00000.057061,-00000.087847,-00000.024255
0000000000922,00002.755337,00002.590532,00002.228712,00003.131061,00002.705226,00002.726981,00002.726348,00003.244656,00002.912152,00002.656551,-00000.400047,-00000.069267,-00000.560959,-00000.056765,-00000.087475,-00000.024264
0000000000923,00002.755054,00002.590915,00002.228762,00003.131190,00002.705004,00002.726667,00002.726389,00003.244657,00002.912601,00002.656742,-00000.400001,-00000.069189,-00000.560916,-00000.056557,-00000.087119,-00000.024276
0000000000924,00002.755212,00002.590606,00002.228896,00003.130936,00002.705296,00002.726356,00002.726543,00003.244690,00002.912290,00002.656966,-00000.400058,-00000.069126,-00000.560987,-00000.056306,-00000.086802,-00000.024284
0000000000925,00002.755333,00002.590569,00002.228937,00003.130682,00002.705470,00002.726088,00002.726941,00003.244328,00002.912309,00002.657129,-00000.400019,-00000.069059,-00000.560950,-00000.056129,-00000.086499,-00000.024294
0000000000926,00002.755468,00002.590307,00002.229052,00003.130466,00002.705356,00002.725824,00002.726708,00003.244357,00002.912044,00002.657320,-00000.400067,-00000.069005,-00000.561011,-00000.055914,-00000.086230,-00000.024301
0000000000927,00002.755208,00002.590275,00002.228724,00003.130613,00002.705141,00002.725959,00002.726684,00003.244048,00002.912061,00002.657095,-00000.400034,-00000.068948,-00000.560979,-00000.055764,-00000.085972,-00000.024310
0000000000928,00002.754960,00002.590414,00002.228822,00003.130429,00002.705044,00002.726096,00002.726849,00003.243710,00002.912198,00002.657258,-00000.400075,-00000.068902,-00000.561031,-00000.055944,-00000.085742,-00000.024315
0000000000929,00002.755465,00002.590024,00002.228906,00003.130192,00002.704861,00002.726574,00002.726466,00003.243810,00002.911849,00002.657067,-00000.400047,-00000.068854,-00000.561004,-00000.056179,-00000.085523,-00000.024323
0000000000930,00002.755254,00002.590143,00002.228626,00003.129672,00002.704779,00002.726691,00002.726607,00003.243522,00002.911604,00002.656842,-00000.400082,-00000.068814,-00000.561048,-00000.056332,-00000.085328,-00000.024327
0000000000931,00002.754958,00002.589811,00002.228335,00003.129470,00002.704260,00002.727098,00002.726280,00003.243245,00002.911669,00002.656680,-00000.400058,-00000.068773,-00000.561025,-00000.056169,-00000.085141,-00000.024334
0000000000932,00002.754778,00002.589912,00002.228459,00003.129753,00002.704553,00002.727198,00002.726763,00003.242999,00002.912186,00002.656851,-00000.400088,-00000.068740,-00000.560700,-00000.055937,-00000.084974,-00000.024338
0000000000933,00002.754526,00002.589992,00002.228211,00003.129581,00002.704474,00002.727181,00002.726848,00003.242401,00002.912242,00002.656713,-00000.400067,-00000.068705,-00000.560680,-00000.055798,-00000.084815,-00000.024343
0000000000934,00002.754373,00002.590078,00002.227954,00003.129822,00002.704360,00002.727629,00002.726896,00003.242192,00002.912319,00002.656496,-00000.400093,-00000.068677,-00000.560766,-00000.055601,-00000.084674,-00000.024347
0000000000935,00002.754158,00002.590147,00002.227744,00003.130039,00002.703931,00002.727614,00002.726968,00003.242045,00002.912366,00002.656379,-00000.400075,-00000.068647,-00000.560750,-00000.055483,-00000.084538,-00000.024352
0000000000936,00002.754028,00002.590220,00002.227888,00003.129881,00002.703834,00002.727633,00002.727009,00003.241867,00002.912432,00002.656557,-00000.400097,-00000.068623,-00000.560822,-00000.055314,-00000.084418,-00000.024354
0000000000937,00002.754208,00002.589915,00002.228071,00003.129702,00002.703831,00002.727621,00002.727070,00003.241742,00002.912109,00002.656819,-00000.400082,-00000.068597,-00000.560446,-00000.055214,-00000.084302,-00000.024358
0000000000938,00002.754460,00002.589615,00002.228193,00003.129206,00002.703748,00002.727636,00002.726742,00003.241590,00002.911439,00002.656971,-00000.400101,-00000.068577,-00000.560145,-00000.055071,-00000.083837,-00000.024361
0000000000939,00002.754614,00002.589718,00002.228349,00003.129054,00002.703746,00002.727626,00002.726795,00003.241847,00002.911165,00002.657195,-00000.399725,-00000.068555,-00000.560187,-00000.054985,-00000.083376,-00000.024364
0000000000940,00002.754465,00002.589825,00002.228091,00003.128993,00002.703676,00002.727639,00002.726878,00003.241718,00002.911320,00002.657324,-00000.399741,-00000.068537,-00000.559931,-00000.055226,-00000.083342,-00000.024366
0000000000941,00002.754233,00002.589913,00002.227861,00003.129227,00002.703311,00002.727993,00002.726923,00003.241573,00002.911450,00002.657151,-00000.399784,-00000.068519,-00000.559967,-00000.055516,-00000.083313,-00000.024369
0000000000942,00002.754832,00002.590004,00002.228004,00003.129538,00002.703251,00002.728368,00002.726631,00003.241826,00002.911582,00002.656899,-00000.399798,-00000.068504,-00000.560112,-00000.055358,-00000.083647,-00000.024371
0000000000943,00002.754997,00002.590079,00002.228171,00003.129737,00002.703303,00002.728306,00002.727032,00003.241703,00002.911692,00002.657115,-00000.399834,-00000.068488,-00000.559779,-00000.055242,-00000.083622,-00000.024373
0000000000944,00002.755145,00002.590157,00002.227930,00003.130365,00002.702889,00002.728625,00002.727147,00003.241556,00002.911442,00002.656899,-00000.399846,-00000.068476,-00000.559903,-00000.055108,-00000.083544,-00000.024375
0000000000945,00002.755285,00002.589495,00002.228072,00003.130171,00002.702934,00002.728572,00002.726762,00003.241451,00002.911173,00002.657083,-00000.399877,-00000.068462,-00000.559983,-00000.055009,-00000.083522,-00000.024377
0000000000946,00002.755411,00002.589198,00002.228229,00003.129980,00002.702944,00002.728843,00002.726497,00003.241688,00002.910959,00002.657263,-00000.399887,-00000.068452,-00000.560087,-00000.055257,-00000.083456,-00000.024378
0000000000947,00002.755893,00002.589360,00002.228350,00003.130178,00002.702982,00002.729162,00002.726532,00003.241962,00002.911093,00002.657419,-00000.399913,-00000.068440,-00000.560156,-00000.055536,-00000.083800,-00000.024380
0000000000948,00002.755637,00002.589108,00002.228484,00003.129653,00002.703354,00002.728667,00002.726669,00003.241801,00002.910912,00002.657572,-00000.399922,-00000.068431,-00000.560245,-00000.055748,-00000.084106,-00000.024381
0000000000949,00002.755685,00002.589246,00002.228587,00003.129821,00002.703386,00002.728938,00002.726337,00003.242034,00002.911026,00002.657343,-00000.399944,-00000.068421,-00000.560303,-00000.055985,-00000.084400,-00000.024383
0000000000950,00002.755467,00002.589031,00002.228339,00003.129374,00002.703340,00002.728517,00002.726090,00003.241897,00002.910508,00002.657473,-00000.399951,-00000.068414,-00000.560379,-00000.056165,-00000.084660,-00000.024384
0000000000951,00002.755508,00002.588786,00002.228426,00003.129517,00002.703367,00002.728747,00002.725807,00003.242095,00002.910243,00002.657640,-00000.399971,-00000.068405,-00000.560428,-00000.056367,-00000.084910,-00000.024748
0000000000952,00002.755685,00002.588965,00002.228578,00003.130225,00002.703328,00002.729114,00002.725961,00003.242342,00002.910528,00002.657751,-00000.399977,-00000.068399,-00000.560493,-00000.056520,-00000.085495,-00000.024748
0000000000953,00002.755357,00002.589119,00002.228289,00003.130347,00002.703351,00002.728585,00002.726082,00003.241785,00002.910664,00002.657530,-00000.399993,-00000.068754,-00000.560535,-00000.056692,-00000.086070,-00000.024696
0000000000954,00002.755508,00002.589272,00002.228418,00003.130224,00002.703680,00002.728535,00002.726213,00003.241994,00002.910544,00002.657625,-00000.399998,-00000.069112,-00000.560953,-00000.056823,-00000.086568,-00000.024696
0000000000955,00002.755229,00002.589766,00002.228173,00003.130328,00002.704063,00002.728084,00002.725954,00003.241883,00002.910661,00002.657437,-00000.400012,-00000.069414,-00000.561351,-00000.056969,-00000.087058,-00000.024651
0000000000956,00002.754995,00002.589896,00002.227919,00003.130223,00002.704343,00002.727316,00002.726065,00003.241699,00002.910921,00002.657155,-00000.400016,-00000.069718,-00000.561344,-00000.057080,-00000.087844,-00000.025015
0000000000957,00002.754757,00002.589954,00002.227711,00003.130311,00002.704306,00002.726932,00002.726207,00003.241967,00002.911020,00002.656995,-00000.400391,-00000.069976,-00000.561684,-00000.057205,-00000.088624,-00000.024976
0000000000958,00002.754920,00002.590065,00002.227858,00003.130222,00002.704908,00002.726641,00002.726301,00003.242536,00002.911242,00002.657117,-00000.400395,-00000.070235,-00000.562040,-00000.057662,-00000.089293,-00000.024923
0000000000959,00002.755081,00002.589751,00002.228043,00003.130298,00002.704876,00002.726314,00002.726060,00003.243127,00002.911326,00002.657344,-00000.400351,-00000.070455,-00000.562329,-00000.058131,-00000.089957,-00000.024890
0000000000960,00002.754857,00002.589846,00002.227805,00003.130584,00002.705025,00002.726066,00002.726140,00003.243248,00002.911515,00002.657448,-00000.400354,-00000.070675,-00000.562633,-00000.058158,-00000.090164,-00000.024845
0000000000961,00002.755356,00002.589941,00002.227963,00003.130648,00002.705361,00002.726514,00002.726297,00003.244114,00002.911587,00002.657641,-00000.400317,-00000.070862,-00000.562879,-00000.058194,-00000.090367,-00000.025180
0000000000962,00002.755528,00002.590022,00002.228123,00003.130530,00002.705488,00002.726303,00002.726366,00003.244217,00002.911385,00002.657730,-00000.400682,-00000.071049,-00000.563137,-00000.058579,-00000.090543,-00000.025504
0000000000963,00002.755591,00002.590466,00002.228258,00003.130584,00002.706137,00002.725958,00002.726862,00003.244229,00002.911446,00002.657895,-00000.401013,-00000.071208,-00000.563347,-00000.058973,-00000.091078,-00000.025426
0000000000964,00002.755737,00002.590534,00002.228394,00003.130483,00002.706608,00002.726141,00002.726920,00003.244680,00002.911637,00002.658333,-00000.401325,-00000.071368,-00000.563567,-00000.059301,-00000.091228,-00000.025339
0000000000965,00002.755790,00002.590913,00002.228146,00003.130167,00002.706797,00002.726211,00002.726980,00003.244690,00002.912051,00002.658473,-00000.401606,-00000.071504,-00000.563745,-00000.059637,-00000.091321,-00000.025273
0000000000966,00002.755915,00002.590971,00002.228262,00003.130444,00002.706473,00002.726729,00002.727030,00003.245073,00002.912577,00002.658483,-00000.401871,-00000.071639,-00000.563932,-00000.059916,-00000.091449,-00000.025199
0000000000967,00002.755960,00002.590930,00002.228413,00003.130175,00002.706997,00002.726789,00002.727444,00003.245444,00002.912567,00002.658602,-00000.401748,-00000.071755,-00000.564084,-00000.059838,-00000.091165,-00000.025143
0000000000968,00002.756430,00002.590980,00002.228875,00003.130410,00002.707446,00002.726867,00002.727849,00003.246134,00002.912651,00002.658974,-00000.401974,-00000.071870,-00000.564244,-00000.059713,-00000.090548,-00000.025443
0000000000969,00002.756468,00002.590945,00002.229004,00003.130181,00002.707892,00002.726918,00002.728201,00003.246450,00002.912643,00002.659075,-00000.402232,-00000.071969,-00000.564373,-00000.060010,-00000.089944,-00000.025758
0000000000970,00002.756867,00002.590624,00002.229034,00003.130019,00002.707912,00002.727348,00002.727820,00003.246674,00002.912352,00002.659029,-00000.402424,-00000.072067,-00000.564509,-00000.060267,-00000.089781,-00000.026013
0000000000971,00002.757263,00002.590958,00002.229144,00003.130186,00002.707929,00002.727753,00002.727757,00003.247306,00002.912345,00002.659115,-00000.402644,-00000.072151,-00000.564618,-00000.060519,-00000.089630,-00000.026281
0000000000972,00002.757603,00002.591410,00002.229169,00003.130048,00002.707945,00002.727756,00002.728159,00003.247134,00002.912460,00002.659075,-00000.402807,-00000.072235,-00000.564734,-00000.060375,-00000.089491,-00000.026498
0000000000973,00002.757577,00002.591694,00002.229263,00003.129828,00002.708323,00002.727739,00002.728468,00003.247309,00002.912454,00002.659149,-00000.402994,-00000.072306,-00000.564465,-00000.060227,-00000.089362,-00000.026727
0000000000974,00002.758229,00002.591716,00002.229648,00003.130074,00002.708337,00002.728104,00002.728447,00003.247888,00002.912552,00002.659115,-00000.403133,-00000.072377,-00000.564563,-00000.060104,-00000.089245,-00000.026912
0000000000975,00002.758569,00002.591595,00002.229727,00003.129886,00002.708658,00002.728089,00002.728347,00003.248400,00002.912184,00002.659541,-00000.403655,-00000.072438,-00000.564697,-00000.059978,-00000.089135,-00000.027106
0000000000976,00002.758762,00002.591614,00002.229692,00003.130095,00002.708670,00002.728400,00002.727966,00003.248893,00002.912268,00002.659512,-00000.403774,-00000.072861,-00000.564781,-00000.060236,-00000.089034,-00000.026901
0000000000977,00002.759052,00002.591511,00002.229759,00003.129936,00002.708944,00002.728751,00002.727882,00003.249329,00002.911954,00002.659511,-00000.404218,-00000.073275,-00000.565257,-00000.060129,-00000.088941,-00000.027066
0000000000978,00002.759216,00002.591527,00002.229729,00003.130113,00002.708954,00002.728653,00002.727558,00003.249386,00002.911663,00002.659124,-00000.405045,-00000.073636,-00000.566054,-00000.060349,-00000.088856,-00000.026891
0000000000979,00002.759100,00002.591802,00002.229424,00003.129978,00002.708824,00002.728225,00002.727848,00003.249031,00002.911759,00002.659123,-00000.405786,-00000.074352,-00000.566823,-00000.060621,-00000.089139,-00000.026669
0000000000980,00002.758876,00002.592179,00002.229399,00003.130129,00002.708833,00002.728142,00002.728298,00003.248717,00002.911873,00002.659157,-00000.406489,-00000.075021,-00000.567501,-00000.061171,-00000.089066,-00000.026520
0000000000981,00002.758778,00002.592413,00002.229139,00003.130376,00002.708722,00002.728141,00002.728183,00003.248415,00002.911955,00002.659156,-00000.407120,-00000.075268,-00000.568155,-00000.061765,-00000.088581,-00000.026331
0000000000982,00002.758587,00002.592734,00002.229117,00003.130505,00002.708729,00002.728070,00002.727840,00003.248510,00002.911690,00002.658822,-00000.407356,-00000.075475,-00000.568370,-00000.061870,-00000.087431,-00000.026568
0000000000983,00002.758503,00002.592933,00002.229259,00003.130352,00002.708998,00002.728069,00002.728104,00003.248253,00002.911397,00002.658821,-00000.407531,-00000.075685,-00000.568201,-00000.061650,-00000.085930,-00000.026769
0000000000984,00002.758704,00002.592480,00002.229240,00003.130099,00002.709367,00002.728008,00002.728175,00003.248334,00002.911171,00002.658899,-00000.407732,-00000.075498,-00000.567659,-00000.061377,-00000.083863,-00000.026970
0000000000985,00002.758996,00002.591924,00002.229361,00003.129970,00002.709233,00002.728007,00002.727675,00003.248841,00002.910921,00002.658536,-00000.407880,-00000.075314,-00000.567515,-00000.061190,-00000.081860,-00000.027142
0000000000986,00002.759167,00002.591902,00002.229708,00003.129754,00002.709547,00002.727956,00002.727735,00003.248910,00002.910366,00002.658602,-00000.408414,-00000.075518,-00000.567416,-00000.060957,-00000.080100,-00000.026951
0000000000987,00002.759415,00002.591791,00002.229447,00003.130007,00002.709070,00002.727955,00002.727672,00003.248616,00002.910516,00002.658656,-00000.408903,-00000.075724,-00000.567656,-00000.061161,-00000.078757,-00000.026734
0000000000988,00002.759560,00002.591772,00002.229380,00003.130186,00002.708612,00002.727911,00002.727361,00003.248311,00002.910407,00002.658350,-00000.408995,-00000.075898,-00000.567935,-00000.061325,-00000.077984,-00000.026934
0000000000989,00002.759771,00002.591678,00002.229884,00003.130038,00002.708932,00002.727911,00002.727307,00003.248424,00002.910172,00002.658395,-00000.409048,-00000.076074,-00000.568139,-00000.061136,-00000.077567,-00000.026750
0000000000990,00002.759895,00002.591662,00002.229827,00003.130191,00002.708905,00002.728236,00002.727405,00003.248165,00002.910078,00002.658135,-00000.409127,-00000.076222,-00000.568013,-00000.060913,-00000.077272,-00000.026557
0000000000991,00002.760075,00002.591582,00002.230256,00003.130065,00002.709177,00002.728599,00002.727359,00003.248623,00002.909878,00002.658174,-00000.409172,-00000.076371,-00000.567825,-00000.061115,-00000.076916,-00000.026400
0000000000992,00002.760180,00002.591568,00002.230207,00003.129832,00002.709516,00002.728513,00002.727805,00003.248766,00002.909799,00002.658314,-00000.409239,-00000.076134,-00000.567718,-00000.061288,-00000.076665,-00000.026236
0000000000993,00002.760333,00002.591500,00002.230572,00003.129725,00002.709748,00002.728459,00002.727766,00003.248793,00002.909629,00002.658348,-00000.409277,-00000.075898,-00000.567557,-00000.061097,-00000.076363,-00000.026102
0000000000994,00002.760060,00002.591488,00002.230531,00003.129164,00002.709674,00002.728023,00002.727783,00003.248552,00002.909561,00002.658467,-00000.409334,-00000.075697,-00000.567466,-00000.060882,-00000.075786,-00000.025962
0000000000995,00002.760191,00002.591067,00002.230479,00003.129072,00002.709508,00002.727614,00002.727750,00003.248575,00002.909416,00002.658496,-00000.409004,-00000.075496,-00000.566967,-00000.060719,-00000.075166,-00000.026211
0000000000996,00002.760321,00002.591057,00002.230444,00003.128958,00002.709809,00002.727243,00002.727764,00003.248732,00002.909359,00002.658598,-00000.408690,-00000.075324,-00000.566889,-00000.060536,-00000.074312,-00000.026455
0000000000997,00002.760069,00002.591424,00002.230400,00003.129243,00002.709305,00002.727257,00002.727736,00003.248390,00002.909598,00002.658259,-00000.408409,-00000.075153,-00000.566827,-00000.060397,-00000.073421,-00000.026305
0000000000998,00002.760180,00002.591416,00002.230007,00003.129508,00002.709197,00002.727304,00002.727748,00003.248161,00002.909912,00002.657983,-00000.408141,-00000.075007,-00000.566761,-00000.060604,-00000.073057,-00000.026149
0000000000999,00002.759966,00002.591003,00002.229969,00003.129388,00002.708769,00002.727317,00002.727361,00003.247869,00002.909753,00002.657694,-00000.407902,-00000.074862,-00000.566708,-00000.060486,-00000.072662,-00000.026021
0000000001000,00002.759697,00002.590633,00002.229998,00003.128888,00002.708677,00002.726994,00002.727372,00003.247674,00002.909657,00002.657822,-00000.407674,-00000.074738,-00000.566289,-00000.059936,-00000.072715,-00000.026252
0000000001001,00002.759515,00002.590644,00002.229966,00003.128786,00002.709038,00002.727004,00002.727405,00003.247788,00002.909522,00002.657940,-00000.407471,-00000.074251,-00000.565881,-00000.059473,-00000.072741,-00000.026868
0000000001002,00002.759649,00002.590692,00002.229990,00003.129086,00002.708960,00002.727455,00002.727414,00003.247985,00002.909440,00002.658049,-00000.407277,-00000.074145,-00000.565524,-00000.059005,-00000.073149,-00000.027427
0000000001003,00002.759494,00002.590701,00002.229962,00003.128999,00002.708904,00002.727101,00002.727443,00003.247719,00002.909688,00002.658148,-00000.407104,-00000.074094,-00000.565539,-00000.058974,-00000.073534,-00000.027589
0000000001004,00002.759608,00002.590742,00002.230346,00003.128891,00002.709201,00002.727122,00002.727450,00003.248250,00002.909619,00002.658241,-00000.407301,-00000.074004,-00000.565598,-00000.058938,-00000.074244,-00000.027702
0000000001005,00002.759476,00002.590387,00002.230323,00003.128454,00002.709153,00002.727184,00002.727474,00003.248387,00002.909467,00002.658689,-00000.407154,-00000.073960,-00000.565612,-00000.058911,-00000.074934,-00000.027477
0000000001006,00002.759573,00002.590059,00002.230286,00003.128363,00002.709043,00002.727565,00002.727481,00003.248838,00002.909407,00002.659131,-00000.407322,-00000.073883,-00000.565662,-00000.058881,-00000.075538,-00000.027211
0000000001007,00002.759824,00002.590120,00002.229904,00003.128716,00002.708639,00002.727980,00002.727502,00003.248954,00002.909641,00002.659149,-00000.407196,-00000.073846,-00000.565673,-00000.058858,-00000.076126,-00000.027382
0000000001008,00002.759544,00002.590566,00002.229873,00003.128639,00002.708545,00002.727941,00002.727870,00003.248976,00002.909953,00002.659162,-00000.407340,-00000.073780,-00000.565716,-00000.058832,-00000.076641,-00000.027518
0000000001009,00002.759394,00002.590618,00002.229910,00003.128577,00002.708928,00002.728295,00002.728250,00003.249075,00002.910152,00002.659541,-00000.407595,-00000.073749,-00000.565725,-00000.059176,-00000.077141,-00000.027664
0000000001010,00002.759156,00002.590635,00002.229883,00003.128873,00002.708485,00002.728262,00002.728201,00003.249094,00002.910781,00002.659552,-00000.407717,-00000.074056,-00000.565762,-00000.059517,-00000.077579,-00000.028142
0000000001011,00002.759391,00002.590679,00002.230278,00003.128821,00002.708810,00002.728562,00002.728162,00003.249541,00002.910950,00002.659874,-00000.407935,-00000.074392,-00000.565770,-00000.059809,-00000.078005,-00000.028629
0000000001012,00002.759188,00002.591057,00002.230255,00003.128711,00002.709159,00002.728534,00002.728483,00003.249556,00002.911123,00002.660246,-00000.408039,-00000.074290,-00000.565801,-00000.060099,-00000.078741,-00000.028674
0000000001013,00002.759025,00002.591457,00002.230228,00003.129029,00002.709073,00002.728428,00002.728812,00003.249574,00002.911267,00002.660521,-00000.407862,-00000.074213,-00000.565808,-00000.060348,-00000.079466,-00000.029088
0000000001014,00002.759216,00002.591416,00002.230209,00003.128935,00002.709370,00002.728767,00002.728723,00003.249950,00002.911413,00002.661201,-00000.407587,-00000.074127,-00000.565834,-00000.060595,-00000.080456,-00000.029126
0000000001015,00002.759440,00002.591756,00002.230549,00003.128843,00002.709660,00002.729039,00002.729003,00003.250328,00002.911536,00002.661797,-00000.407436,-00000.074424,-00000.565840,-00000.060807,-00000.081436,-00000.029117
0000000001016,00002.759602,00002.591721,00002.230533,00003.129125,00002.709550,00002.729327,00002.728927,00003.250649,00002.911661,00002.662375,-00000.407565,-00000.074351,-00000.565863,-00000.061017,-00000.082278,-00000.029149
0000000001017,00002.759793,00002.591648,00002.230822,00003.129047,00002.709796,00002.729559,00002.728803,00003.250608,00002.911765,00002.662883,-00000.407437,-00000.074604,-00000.565868,-00000.061197,-00000.083475,-00000.029140
0000000001018,00002.759931,00002.591981,00002.231171,00003.128925,00002.710065,00002.729804,00002.729101,00003.250517,00002.912235,00002.663376,-00000.407184,-00000.074542,-00000.565887,-00000.061739,-00000.084918,-00000.029168
0000000001019,00002.760093,00002.592282,00002.231417,00003.128858,00002.710638,00002.730364,00002.730084,00003.250845,00002.912686,00002.664171,-00000.407075,-00000.074394,-00000.565891,-00000.061893,-00000.086663,-00000.029524
0000000001020,00002.760936,00002.592928,00002.231714,00003.129480,00002.710867,00002.730936,00002.730700,00003.251131,00002.913086,00002.664590,-00000.406859,-00000.074341,-00000.565908,-00000.061991,-00000.088253,-00000.029547
0000000001021,00002.761075,00002.593547,00002.231561,00003.129423,00002.710992,00002.730687,00002.731174,00003.251048,00002.913833,00002.664541,-00000.406766,-00000.074578,-00000.566274,-00000.062485,-00000.090102,-00000.029487
0000000001022,00002.761067,00002.593734,00002.231451,00003.129227,00002.711187,00002.730449,00002.731699,00003.250928,00002.914173,00002.664898,-00000.406583,-00000.074896,-00000.566651,-00000.062931,-00000.092181,-00000.029870
0000000001023,00002.761910,00002.594624,00002.231683,00003.129541,00002.711293,00002.730962,00002.732102,00003.251220,00002.914446,00002.665219,-00000.406504,-00000.075098,-00000.566963,-00000.063351,-00000.094118,-00000.029819
0000000001024,00002.762629,00002.594783,00002.231952,00003.129374,00002.711459,00002.731485,00002.732549,00003.251481,00002.914736,00002.665886,-00000.405985,-00000.075005,-00000.567283,-00000.063732,-00000.096251,-00000.029782
0000000001025,00002.762984,00002.595541,00002.231788,00003.129642,00002.711550,00002.731559,00002.732892,00003.251366,00002.915331,00002.665797,-00000.405555,-00000.074815,-00000.567186,-00000.064089,-00000.097899,-00000.029738
0000000001026,00002.763596,00002.596039,00002.232017,00003.129863,00002.712054,00002.731641,00002.733273,00003.251589,00002.915578,00002.666002,-00000.405113,-00000.074736,-00000.567096,-00000.064413,-00000.099352,-00000.030069
0000000001027,00002.764261,00002.596321,00002.232239,00003.130090,00002.712131,00002.731704,00002.733565,00003.251854,00002.915722,00002.666288,-00000.404747,-00000.074574,-00000.567013,-00000.064717,-00000.101118,-00000.030395
0000000001028,00002.764782,00002.596745,00002.232071,00003.130278,00002.711834,00002.731774,00002.733526,00003.251681,00002.915932,00002.666463,-00000.404371,-00000.074506,-00000.566937,-00000.064993,-00000.103081,-00000.030677
0000000001029,00002.765348,00002.596985,00002.232261,00003.130472,00002.712263,00002.731465,00002.733775,00003.251906,00002.916055,00002.667070,-00000.403696,-00000.074368,-00000.566867,-00000.065252,-00000.104947,-00000.030954
0000000001030,00002.765792,00002.596984,00002.232481,00003.130269,00002.712736,00002.731525,00002.734104,00003.252122,00002.916233,00002.667581,-00000.403013,-00000.074311,-00000.566801,-00000.065124,-00000.106618,-00000.031195
0000000001031,00002.765911,00002.597188,00002.231916,00003.130434,00002.712375,00002.731262,00002.733953,00003.251951,00002.916338,00002.667735,-00000.402439,-00000.073831,-00000.566379,-00000.064982,-00000.108207,-00000.031431
0000000001032,00002.765563,00002.597187,00002.231741,00003.129899,00002.712415,00002.731312,00002.733871,00003.251771,00002.916127,00002.667807,-00000.401858,-00000.073419,-00000.565960,-00000.064873,-00000.109629,-00000.031998
