0000000014618,00002.724609,00002.480469,00002.202148,00003.178711,00002.685547,00002.680664,00002.714844,00003.237305,00002.871094,00002.622070,-00000.439453,-00000.102539,-00000.576172,-00000.073242,-00000.024414,-00000.058594
0000000014619,00002.719727,00002.485352,00002.197266,00003.183594,00002.680664,00002.675781,00002.714844,00003.227539,00002.871094,00002.617188,-00000.439453,-00000.102539,-00000.576172,-00000.073242,-00000.024414,-00000.058594
0000000014620,00002.724609,00002.480469,00002.197266,00003.183594,00002.675781,00002.680664,00002.709961,00003.227539,00002.871094,00002.617188,-00000.439453,-00000.102539,-00000.576172,-00000.073242,-00000.029297,-00000.063477
0000000014621,00002.714844,00002.480469,00002.192383,00003.178711,00002.680664,00002.680664,00002.714844,00003.232422,00002.871094,00002.622070,-00000.439453,-00000.102539,-00000.576172,-00000.073242,-00000.029297,-00000.063477
0000000014622,00002.729492,00002.480469,00002.197266,00003.183594,00002.675781,00002.680664,00002.709961,00003.232422,00002.871094,00002.617188,-00000.439453,-00000.102539,-00000.576172,-00000.073242,-00000.029297,-00000.058594
0000000014623,00002.719727,00002.480469,00002.197266,00003.178711,00002.675781,00002.680664,00002.714844,00003.227539,00002.871094,00002.617188,-00000.439453,-00000.102539,-00000.576172,-00000.078125,-00000.029297,-00000.058594
0000000014624,00002.719727,00002.475586,00002.197266,00003.173828,00002.680664,00002.675781,00002.709961,00003.232422,00002.866211,00002.617188,-00000.444336,-00000.102539,-00000.581055,-00000.078125,-00000.029297,-00000.063477
0000000014625,00002.729492,00002.480469,00002.202148,00003.178711,00002.685547,00002.680664,00002.709961,00003.237305,00002.866211,00002.622070,-00000.439453,-00000.102539,-00000.576172,-00000.078125,-00000.034180,-00000.063477
0000000014626,00002.719727,00002.485352,00002.192383,00003.178711,00002.675781,00002.675781,00002.709961,00003.222656,00002.871094,00002.617188,-00000.439453,-00000.102539,-00000.576172,-00000.073242,-00000.029297,-00000.063477
0000000014627,00002.724609,00002.480469,00002.202148,00003.173828,00002.675781,00002.675781,00002.709961,00003.232422,00002.866211,00002.622070,-00000.444336,-00000.102539,-00000.581055,-00000.073242,-00000.029297,-00000.063477
0000000014628,00002.719727,00002.485352,00002.197266,00003.173828,00002.680664,00002.670898,00002.714844,00003.227539,00002.871094,00002.617188,-00000.444336,-00000.102539,-00000.581055,-00000.078125,-00000.029297,-00000.058594
0000000014629,00002.724609,00002.485352,00002.197266,00003.178711,00002.680664,00002.680664,00002.714844,00003.232422,00002.871094,00002.617188,-00000.439453,-00000.107422,-00000.581055,-00000.078125,-00000.029297,-00000.063477
0000000014630,00002.724609,00002.480469,00002.197266,00003.178711,00002.680664,00002.680664,00002.709961,00003.232422,00002.871094,00002.617188,-00000.444336,-00000.102539,-00000.581055,-00000.078125,-00000.034180,-00000.063477
0000000014631,00002.724609,00002.485352,00002.202148,00003.178711,00002.685547,00002.680664,00002.714844,00003.232422,00002.871094,00002.622070,-00000.444336,-00000.102539,-00000.585938,-00000.078125,-00000.034180,-00000.063477
0000000014632,00002.729492,00002.485352,00002.202148,00003.173828,00002.685547,00002.675781,00002.714844,00003.232422,00002.866211,00002.626953,-00000.444336,-00000.102539,-00000.581055,-00000.083008,-00000.034180,-00000.068359
0000000014633,00002.724609,00002.490234,00002.197266,00003.178711,00002.685547,00002.675781,00002.719727,00003.232422,00002.875977,00002.631836,-00000.444336,-00000.102539,-00000.585938,-00000.078125,-00000.034180,-00000.063477
0000000014634,00002.724609,00002.490234,00002.202148,00003.173828,00002.685547,00002.675781,00002.719727,00003.227539,00002.871094,00002.631836,-00000.444336,-00000.102539,-00000.581055,-00000.078125,-00000.034180,-00000.063477
0000000014635,00002.724609,00002.495117,00002.202148,00003.178711,00002.685547,00002.675781,00002.719727,00003.232422,00002.875977,00002.631836,-00000.444336,-00000.107422,-00000.581055,-00000.078125,-00000.034180,-00000.068359
0000000014636,00002.724609,00002.490234,00002.197266,00003.183594,00002.680664,00002.675781,00002.714844,00003.227539,00002.875977,00002.631836,-00000.444336,-00000.102539,-00000.581055,-00000.078125,-00000.039063,-00000.068359
0000000014637,00002.729492,00002.490234,00002.207031,00003.183594,00002.680664,00002.680664,00002.714844,00003.237305,00002.871094,00002.631836,-00000.444336,-00000.102539,-00000.581055,-00000.078125,-00000.039063,-00000.068359
0000000014638,00002.724609,00002.490234,00002.202148,00003.178711,00002.680664,00002.675781,00002.714844,00003.227539,00002.875977,00002.631836,-00000.444336,-00000.102539,-00000.581055,-00000.078125,-00000.039063,-00000.068359
0000000014639,00002.724609,00002.490234,00002.202148,00003.183594,00002.680664,00002.680664,00002.719727,00003.237305,00002.875977,00002.631836,-00000.444336,-00000.102539,-00000.581055,-00000.078125,-00000.039063,-00000.068359
0000000014640,00002.724609,00002.490234,00002.202148,00003.178711,00002.685547,00002.675781,00002.714844,00003.227539,00002.875977,00002.631836,-00000.444336,-00000.102539,-00000.585938,-00000.078125,-00000.039063,-00000.063477
0000000014641,00002.729492,00002.490234,00002.202148,00003.178711,00002.680664,00002.680664,00002.709961,00003.232422,00002.871094,00002.631836,-00000.444336,-00000.102539,-00000.581055,-00000.078125,-00000.039063,-00000.063477
0000000014642,00002.729492,00002.485352,00002.202148,00003.178711,00002.680664,00002.680664,00002.714844,00003.237305,00002.875977,00002.631836,-00000.444336,-00000.102539,-00000.581055,-00000.078125,-00000.043945,-00000.068359
0000000014643,00002.724609,00002.485352,00002.202148,00003.173828,00002.685547,00002.680664,00002.714844,00003.237305,00002.871094,00002.626953,-00000.444336,-00000.102539,-00000.581055,-00000.078125,-00000.043945,-00000.068359
0000000014644,00002.724609,00002.485352,00002.197266,00003.168945,00002.680664,00002.675781,00002.714844,00003.227539,00002.866211,00002.626953,-00000.444336,-00000.102539,-00000.585938,-00000.078125,-00000.043945,-00000.068359
0000000014645,00002.724609,00002.485352,00002.197266,00003.178711,00002.680664,00002.680664,00002.709961,00003.232422,00002.871094,00002.622070,-00000.444336,-00000.102539,-00000.581055,-00000.083008,-00000.043945,-00000.068359
0000000014646,00002.719727,00002.490234,00002.197266,00003.178711,00002.680664,00002.675781,00002.714844,00003.227539,00002.871094,00002.617188,-00000.439453,-00000.102539,-00000.581055,-00000.083008,-00000.043945,-00000.068359
0000000014647,00002.719727,00002.485352,00002.197266,00003.178711,00002.680664,00002.675781,00002.719727,00003.227539,00002.871094,00002.617188,-00000.439453,-00000.102539,-00000.581055,-00000.078125,-00000.043945,-00000.063477
0000000014648,00002.729492,00002.485352,00002.202148,00003.168945,00002.685547,00002.675781,00002.709961,00003.232422,00002.866211,00002.622070,-00000.439453,-00000.102539,-00000.581055,-00000.078125,-00000.039063,-00000.063477
0000000014649,00002.724609,00002.485352,00002.202148,00003.173828,00002.680664,00002.675781,00002.714844,00003.227539,00002.875977,00002.617188,-00000.444336,-00000.102539,-00000.581055,-00000.078125,-00000.039063,-00000.063477
0000000014650,00002.724609,00002.485352,00002.197266,00003.173828,00002.680664,00002.675781,00002.714844,00003.227539,00002.871094,00002.617188,-00000.444336,-00000.102539,-00000.581055,-00000.078125,-00000.043945,-00000.068359
0000000014651,00002.729492,00002.485352,00002.202148,00003.168945,00002.685547,00002.675781,00002.714844,00003.232422,00002.871094,00002.622070,-00000.444336,-00000.102539,-00000.581055,-00000.078125,-00000.043945,-00000.063477
0000000014652,00002.724609,00002.490234,00002.197266,00003.173828,00002.680664,00002.680664,00002.714844,00003.227539,00002.875977,00002.622070,-00000.444336,-00000.102539,-00000.581055,-00000.078125,-00000.043945,-00000.068359
0000000014653,00002.724609,00002.480469,00002.202148,00003.168945,00002.685547,00002.680664,00002.714844,00003.232422,00002.871094,00002.622070,-00000.444336,-00000.102539,-00000.581055,-00000.073242,-00000.043945,-00000.068359
0000000014654,00002.724609,00002.490234,00002.202148,00003.173828,00002.690430,00002.680664,00002.719727,00003.237305,00002.871094,00002.622070,-00000.444336,-00000.102539,-00000.581055,-00000.073242,-00000.039063,-00000.063477
0000000014655,00002.719727,00002.485352,00002.197266,00003.168945,00002.685547,00002.675781,00002.714844,00003.227539,00002.871094,00002.617188,-00000.444336,-00000.102539,-00000.581055,-00000.073242,-00000.039063,-00000.063477
0000000014656,00002.724609,00002.480469,00002.202148,00003.168945,00002.685547,00002.680664,00002.714844,00003.232422,00002.866211,00002.622070,-00000.444336,-00000.102539,-00000.581055,-00000.073242,-00000.034180,-00000.063477
0000000014657,00002.724609,00002.480469,00002.202148,00003.168945,00002.685547,00002.675781,00002.714844,00003.232422,00002.866211,00002.622070,-00000.444336,-00000.097656,-00000.576172,-00000.073242,-00000.034180,-00000.063477
0000000014658,00002.724609,00002.480469,00002.202148,00003.168945,00002.685547,00002.680664,00002.714844,00003.232422,00002.871094,00002.622070,-00000.444336,-00000.102539,-00000.576172,-00000.073242,-00000.034180,-00000.068359
0000000014659,00002.719727,00002.485352,00002.197266,00003.168945,00002.675781,00002.675781,00002.709961,00003.227539,00002.871094,00002.612305,-00000.444336,-00000.102539,-00000.576172,-00000.073242,-00000.034180,-00000.068359
0000000014660,00002.724609,00002.485352,00002.197266,00003.173828,00002.675781,00002.680664,00002.714844,00003.227539,00002.871094,00002.617188,-00000.444336,-00000.102539,-00000.581055,-00000.078125,-00000.034180,-00000.068359
0000000014661,00002.724609,00002.475586,00002.202148,00003.173828,00002.680664,00002.675781,00002.709961,00003.232422,00002.866211,00002.622070,-00000.449219,-00000.102539,-00000.581055,-00000.078125,-00000.039063,-00000.068359
0000000014662,00002.724609,00002.485352,00002.202148,00003.168945,00002.685547,00002.675781,00002.714844,00003.232422,00002.866211,00002.622070,-00000.449219,-00000.102539,-00000.581055,-00000.078125,-00000.039063,-00000.068359
0000000014663,00002.724609,00002.480469,00002.202148,00003.173828,00002.680664,00002.675781,00002.709961,00003.232422,00002.866211,00002.626953,-00000.449219,-00000.102539,-00000.581055,-00000.078125,-00000.039063,-00000.068359
0000000014664,00002.714844,00002.480469,00002.192383,00003.173828,00002.675781,00002.666016,00002.709961,00003.222656,00002.866211,00002.617188,-00000.444336,-00000.102539,-00000.581055,-00000.078125,-00000.034180,-00000.068359
0000000014665,00002.719727,00002.485352,00002.197266,00003.173828,00002.680664,00002.670898,00002.714844,00003.227539,00002.871094,00002.617188,-00000.444336,-00000.102539,-00000.576172,-00000.078125,-00000.034180,-00000.068359
0000000014666,00002.724609,00002.485352,00002.197266,00003.183594,00002.680664,00002.675781,00002.714844,00003.232422,00002.871094,00002.617188,-00000.444336,-00000.097656,-00000.576172,-00000.073242,-00000.039063,-00000.073242
0000000014667,00002.719727,00002.480469,00002.197266,00003.173828,00002.685547,00002.670898,00002.714844,00003.227539,00002.866211,00002.626953,-00000.444336,-00000.097656,-00000.576172,-00000.073242,-00000.043945,-00000.073242
0000000014668,00002.724609,00002.485352,00002.202148,00003.178711,00002.685547,00002.675781,00002.714844,00003.232422,00002.871094,00002.631836,-00000.444336,-00000.097656,-00000.576172,-00000.073242,-00000.043945,-00000.073242
0000000014669,00002.724609,00002.480469,00002.202148,00003.178711,00002.685547,00002.675781,00002.709961,00003.232422,00002.866211,00002.631836,-00000.449219,-00000.097656,-00000.576172,-00000.078125,-00000.043945,-00000.073242
0000000014670,00002.724609,00002.480469,00002.202148,00003.178711,00002.680664,00002.670898,00002.709961,00003.227539,00002.861328,00002.631836,-00000.449219,-00000.097656,-00000.576172,-00000.073242,-00000.043945,-00000.068359
0000000014671,00002.724609,00002.485352,00002.202148,00003.178711,00002.685547,00002.675781,00002.714844,00003.232422,00002.871094,00002.636719,-00000.454102,-00000.097656,-00000.576172,-00000.073242,-00000.039063,-00000.068359
0000000014672,00002.724609,00002.480469,00002.202148,00003.178711,00002.685547,00002.680664,00002.714844,00003.237305,00002.871094,00002.636719,-00000.454102,-00000.097656,-00000.576172,-00000.073242,-00000.039063,-00000.068359
0000000014673,00002.729492,00002.480469,00002.202148,00003.178711,00002.685547,00002.675781,00002.709961,00003.237305,00002.866211,00002.636719,-00000.449219,-00000.092773,-00000.571289,-00000.073242,-00000.039063,-00000.073242
0000000014674,00002.719727,00002.485352,00002.197266,00003.178711,00002.675781,00002.670898,00002.709961,00003.227539,00002.871094,00002.622070,-00000.449219,-00000.097656,-00000.571289,-00000.073242,-00000.034180,-00000.068359
0000000014675,00002.719727,00002.485352,00002.202148,00003.178711,00002.680664,00002.675781,00002.714844,00003.227539,00002.871094,00002.617188,-00000.449219,-00000.092773,-00000.571289,-00000.073242,-00000.034180,-00000.073242
0000000014676,00002.724609,00002.485352,00002.202148,00003.178711,00002.680664,00002.675781,00002.709961,00003.232422,00002.871094,00002.626953,-00000.444336,-00000.097656,-00000.576172,-00000.073242,-00000.039063,-00000.073242
0000000014677,00002.724609,00002.485352,00002.207031,00003.173828,00002.685547,00002.675781,00002.709961,00003.232422,00002.866211,00002.631836,-00000.444336,-00000.092773,-00000.571289,-00000.068359,-00000.039063,-00000.073242
0000000014678,00002.719727,00002.485352,00002.202148,00003.178711,00002.685547,00002.675781,00002.714844,00003.227539,00002.871094,00002.631836,-00000.444336,-00000.097656,-00000.571289,-00000.073242,-00000.034180,-00000.068359
0000000014679,00002.724609,00002.480469,00002.202148,00003.178711,00002.680664,00002.675781,00002.709961,00003.232422,00002.866211,00002.631836,-00000.444336,-00000.097656,-00000.576172,-00000.073242,-00000.039063,-00000.068359
0000000014680,00002.724609,00002.485352,00002.202148,00003.178711,00002.685547,00002.675781,00002.714844,00003.232422,00002.866211,00002.636719,-00000.444336,-00000.097656,-00000.571289,-00000.073242,-00000.039063,-00000.063477
0000000014681,00002.724609,00002.485352,00002.202148,00003.178711,00002.685547,00002.675781,00002.719727,00003.227539,00002.875977,00002.636719,-00000.439453,-00000.097656,-00000.571289,-00000.073242,-00000.039063,-00000.063477
0000000014682,00002.729492,00002.485352,00002.202148,00003.183594,00002.680664,00002.680664,00002.714844,00003.232422,00002.871094,00002.636719,-00000.444336,-00000.097656,-00000.571289,-00000.068359,-00000.039063,-00000.063477
0000000014683,00002.724609,00002.480469,00002.197266,00003.178711,00002.675781,00002.675781,00002.709961,00003.222656,00002.871094,00002.626953,-00000.444336,-00000.097656,-00000.571289,-00000.068359,-00000.034180,-00000.063477
0000000014684,00002.724609,00002.475586,00002.202148,00003.173828,00002.680664,00002.675781,00002.709961,00003.232422,00002.866211,00002.631836,-00000.439453,-00000.097656,-00000.571289,-00000.068359,-00000.039063,-00000.063477
0000000014685,00002.724609,00002.480469,00002.202148,00003.173828,00002.685547,00002.675781,00002.714844,00003.232422,00002.871094,00002.631836,-00000.444336,-00000.097656,-00000.571289,-00000.073242,-00000.039063,-00000.063477
0000000014686,00002.724609,00002.485352,00002.197266,00003.183594,00002.680664,00002.680664,00002.709961,00003.232422,00002.871094,00002.626953,-00000.439453,-00000.097656,-00000.566406,-00000.068359,-00000.039063,-00000.063477
0000000014687,00002.724609,00002.480469,00002.202148,00003.173828,00002.685547,00002.670898,00002.714844,00003.227539,00002.871094,00002.631836,-00000.439453,-00000.097656,-00000.571289,-00000.068359,-00000.034180,-00000.063477
0000000014688,00002.719727,00002.480469,00002.197266,00003.173828,00002.680664,00002.670898,00002.714844,00003.222656,00002.866211,00002.622070,-00000.439453,-00000.097656,-00000.571289,-00000.068359,-00000.034180,-00000.063477
0000000014689,00002.724609,00002.480469,00002.197266,00003.178711,00002.675781,00002.675781,00002.709961,00003.227539,00002.866211,00002.617188,-00000.439453,-00000.097656,-00000.571289,-00000.068359,-00000.029297,-00000.063477
0000000014690,00002.724609,00002.480469,00002.202148,00003.173828,00002.685547,00002.670898,00002.714844,00003.227539,00002.866211,00002.622070,-00000.439453,-00000.097656,-00000.571289,-00000.068359,-00000.034180,-00000.063477
0000000014691,00002.724609,00002.475586,00002.202148,00003.173828,00002.680664,00002.675781,00002.709961,00003.232422,00002.866211,00002.622070,-00000.439453,-00000.097656,-00000.576172,-00000.068359,-00000.034180,-00000.063477
0000000014692,00002.719727,00002.480469,00002.202148,00003.173828,00002.685547,00002.675781,00002.714844,00003.227539,00002.871094,00002.622070,-00000.439453,-00000.097656,-00000.571289,-00000.068359,-00000.034180,-00000.063477
0000000014693,00002.719727,00002.485352,00002.197266,00003.173828,00002.680664,00002.670898,00002.714844,00003.222656,00002.871094,00002.617188,-00000.444336,-00000.097656,-00000.571289,-00000.068359,-00000.034180,-00000.063477
0000000014694,00002.724609,00002.475586,00002.202148,00003.173828,00002.680664,00002.675781,00002.709961,00003.227539,00002.866211,00002.622070,-00000.444336,-00000.097656,-00000.576172,-00000.068359,-00000.034180,-00000.063477
0000000014695,00002.719727,00002.480469,00002.197266,00003.168945,00002.685547,00002.670898,00002.714844,00003.227539,00002.866211,00002.622070,-00000.439453,-00000.097656,-00000.576172,-00000.068359,-00000.034180,-00000.063477
0000000014696,00002.729492,00002.480469,00002.202148,00003.173828,00002.680664,00002.675781,00002.709961,00003.232422,00002.866211,00002.622070,-00000.439453,-00000.097656,-00000.571289,-00000.068359,-00000.034180,-00000.063477
0000000014697,00002.729492,00002.480469,00002.202148,00003.173828,00002.680664,00002.675781,00002.709961,00003.227539,00002.861328,00002.617188,-00000.439453,-00000.097656,-00000.571289,-00000.068359,-00000.034180,-00000.063477
0000000014698,00002.719727,00002.480469,00002.197266,00003.173828,00002.685547,00002.670898,00002.719727,00003.227539,00002.871094,00002.617188,-00000.439453,-00000.097656,-00000.576172,-00000.068359,-00000.034180,-00000.063477
0000000014699,00002.714844,00002.480469,00002.197266,00003.173828,00002.675781,00002.670898,00002.709961,00003.222656,00002.866211,00002.612305,-00000.439453,-00000.097656,-00000.571289,-00000.068359,-00000.034180,-00000.063477
0000000014700,00002.724609,00002.475586,00002.202148,00003.173828,00002.680664,00002.670898,00002.709961,00003.227539,00002.861328,00002.617188,-00000.439453,-00000.097656,-00000.571289,-00000.068359,-00000.034180,-00000.063477
0000000014701,00002.724609,00002.475586,00002.202148,00003.178711,00002.680664,00002.675781,00002.709961,00003.227539,00002.866211,00002.617188,-00000.439453,-00000.097656,-00000.571289,-00000.068359,-00000.034180,-00000.063477
0000000014702,00002.724609,00002.475586,00002.202148,00003.173828,00002.680664,00002.670898,00002.709961,00003.227539,00002.861328,00002.617188,-00000.439453,-00000.097656,-00000.571289,-00000.068359,-00000.034180,-00000.063477
0000000014703,00002.724609,00002.475586,00002.202148,00003.173828,00002.680664,00002.670898,00002.714844,00003.222656,00002.866211,00002.617188,-00000.439453,-00000.092773,-00000.571289,-00000.068359,-00000.039063,-00000.063477
0000000014704,00002.719727,00002.475586,00002.197266,00003.168945,00002.680664,00002.666016,00002.709961,00003.222656,00002.861328,00002.617188,-00000.434570,-00000.092773,-00000.566406,-00000.068359,-00000.039063,-00000.063477
0000000014705,00002.714844,00002.480469,00002.197266,00003.178711,00002.680664,00002.670898,00002.714844,00003.222656,00002.871094,00002.617188,-00000.434570,-00000.092773,-00000.566406,-00000.063477,-00000.039063,-00000.063477
0000000014706,00002.724609,00002.480469,00002.197266,00003.178711,00002.675781,00002.675781,00002.709961,00003.227539,00002.866211,00002.612305,-00000.434570,-00000.092773,-00000.566406,-00000.063477,-00000.039063,-00000.063477
0000000014707,00002.719727,00002.485352,00002.197266,00003.178711,00002.680664,00002.670898,00002.714844,00003.222656,00002.871094,00002.612305,-00000.434570,-00000.092773,-00000.566406,-00000.063477,-00000.034180,-00000.063477
0000000014708,00002.719727,00002.475586,00002.197266,00003.173828,00002.680664,00002.666016,00002.709961,00003.222656,00002.866211,00002.617188,-00000.434570,-00000.092773,-00000.566406,-00000.063477,-00000.034180,-00000.063477
0000000014709,00002.719727,00002.480469,00002.197266,00003.178711,00002.680664,00002.670898,00002.714844,00003.222656,00002.871094,00002.612305,-00000.434570,-00000.092773,-00000.566406,-00000.063477,-00000.034180,-00000.063477
0000000014710,00002.719727,00002.480469,00002.197266,00003.178711,00002.680664,00002.670898,00002.714844,00003.222656,00002.871094,00002.617188,-00000.434570,-00000.092773,-00000.566406,-00000.058594,-00000.034180,-00000.063477
0000000014711,00002.724609,00002.480469,00002.197266,00003.183594,00002.680664,00002.675781,00002.709961,00003.227539,00002.866211,00002.617188,-00000.434570,-00000.092773,-00000.566406,-00000.063477,-00000.034180,-00000.063477
0000000014712,00002.719727,00002.480469,00002.197266,00003.173828,00002.680664,00002.670898,00002.709961,00003.222656,00002.861328,00002.617188,-00000.434570,-00000.087891,-00000.561523,-00000.063477,-00000.034180,-00000.063477
0000000014713,00002.714844,00002.480469,00002.197266,00003.173828,00002.680664,00002.666016,00002.714844,00003.222656,00002.866211,00002.617188,-00000.434570,-00000.092773,-00000.561523,-00000.058594,-00000.034180,-00000.063477
0000000014714,00002.719727,00002.485352,00002.197266,00003.183594,00002.680664,00002.675781,00002.714844,00003.222656,00002.871094,00002.617188,-00000.434570,-00000.087891,-00000.561523,-00000.058594,-00000.034180,-00000.063477
0000000014715,00002.724609,00002.475586,00002.202148,00003.178711,00002.685547,00002.670898,00002.714844,00003.227539,00002.861328,00002.617188,-00000.434570,-00000.092773,-00000.566406,-00000.058594,-00000.029297,-00000.063477
0000000014716,00002.724609,00002.475586,00002.202148,00003.173828,00002.685547,00002.675781,00002.709961,00003.227539,00002.866211,00002.622070,-00000.439453,-00000.092773,-00000.566406,-00000.058594,-00000.029297,-00000.058594
0000000014717,00002.719727,00002.485352,00002.202148,00003.183594,00002.680664,00002.675781,00002.714844,00003.222656,00002.871094,00002.622070,-00000.439453,-00000.092773,-00000.566406,-00000.058594,-00000.029297,-00000.058594
0000000014718,00002.719727,00002.480469,00002.197266,00003.183594,00002.675781,00002.670898,00002.714844,00003.217773,00002.871094,00002.617188,-00000.439453,-00000.087891,-00000.561523,-00000.063477,-00000.029297,-00000.063477
0000000014719,00002.724609,00002.480469,00002.202148,00003.178711,00002.675781,00002.675781,00002.714844,00003.227539,00002.866211,00002.617188,-00000.434570,-00000.092773,-00000.561523,-00000.058594,-00000.029297,-00000.058594
0000000014720,00002.724609,00002.475586,00002.202148,00003.178711,00002.680664,00002.675781,00002.709961,00003.227539,00002.866211,00002.617188,-00000.439453,-00000.092773,-00000.561523,-00000.058594,-00000.029297,-00000.058594
0000000014721,00002.719727,00002.480469,00002.197266,00003.178711,00002.680664,00002.670898,00002.714844,00003.217773,00002.866211,00002.612305,-00000.439453,-00000.092773,-00000.561523,-00000.058594,-00000.024414,-00000.058594
0000000014722,00002.724609,00002.475586,00002.202148,00003.178711,00002.680664,00002.675781,00002.709961,00003.227539,00002.866211,00002.622070,-00000.439453,-00000.092773,-00000.561523,-00000.058594,-00000.019531,-00000.058594
0000000014723,00002.724609,00002.480469,00002.202148,00003.178711,00002.685547,00002.670898,00002.714844,00003.227539,00002.866211,00002.622070,-00000.439453,-00000.092773,-00000.561523,-00000.058594,-00000.024414,-00000.058594
0000000014724,00002.719727,00002.480469,00002.197266,00003.173828,00002.680664,00002.670898,00002.714844,00003.217773,00002.866211,00002.612305,-00000.439453,-00000.092773,-00000.561523,-00000.058594,-00000.024414,-00000.058594
0000000014725,00002.719727,00002.485352,00002.197266,00003.178711,00002.680664,00002.670898,00002.714844,00003.222656,00002.866211,00002.612305,-00000.444336,-00000.092773,-00000.561523,-00000.058594,-00000.024414,-00000.058594
0000000014726,00002.719727,00002.470703,00002.202148,00003.173828,00002.680664,00002.670898,00002.709961,00003.222656,00002.861328,00002.612305,-00000.444336,-00000.092773,-00000.566406,-00000.058594,-00000.019531,-00000.058594
0000000014727,00002.724609,00002.475586,00002.197266,00003.168945,00002.680664,00002.670898,00002.709961,00003.222656,00002.851563,00002.612305,-00000.439453,-00000.092773,-00000.561523,-00000.063477,-00000.024414,-00000.058594
0000000014728,00002.724609,00002.475586,00002.197266,00003.168945,00002.675781,00002.670898,00002.705078,00003.222656,00002.851563,00002.602539,-00000.444336,-00000.092773,-00000.566406,-00000.058594,-00000.024414,-00000.053711
0000000014729,00002.724609,00002.475586,00002.202148,00003.164063,00002.685547,00002.670898,00002.714844,00003.227539,00002.851563,00002.602539,-00000.444336,-00000.097656,-00000.566406,-00000.058594,-00000.019531,-00000.053711
0000000014730,00002.724609,00002.470703,00002.197266,00003.164063,00002.680664,00002.666016,00002.709961,00003.222656,00002.846680,00002.602539,-00000.449219,-00000.097656,-00000.571289,-00000.063477,-00000.019531,-00000.053711
0000000014731,00002.719727,00002.465820,00002.197266,00003.159180,00002.680664,00002.661133,00002.705078,00003.217773,00002.841797,00002.597656,-00000.454102,-00000.097656,-00000.571289,-00000.063477,-00000.024414,-00000.053711
0000000014732,00002.719727,00002.465820,00002.202148,00003.164063,00002.685547,00002.666016,00002.709961,00003.227539,00002.846680,00002.602539,-00000.444336,-00000.097656,-00000.571289,-00000.068359,-00000.034180,-00000.063477
0000000014733,00002.714844,00002.465820,00002.192383,00003.168945,00002.675781,00002.666016,00002.705078,00003.222656,00002.841797,00002.597656,-00000.444336,-00000.097656,-00000.571289,-00000.063477,-00000.039063,-00000.073242
0000000014734,00002.714844,00002.470703,00002.192383,00003.168945,00002.680664,00002.661133,00002.709961,00003.217773,00002.851563,00002.597656,-00000.444336,-00000.097656,-00000.571289,-00000.063477,-00000.039063,-00000.078125
0000000014735,00002.719727,00002.465820,00002.192383,00003.168945,00002.680664,00002.666016,00002.705078,00003.222656,00002.841797,00002.597656,-00000.439453,-00000.092773,-00000.571289,-00000.063477,-00000.048828,-00000.078125
0000000014736,00002.709961,00002.460938,00002.187500,00003.159180,00002.680664,00002.656250,00002.705078,00003.217773,00002.841797,00002.592773,-00000.439453,-00000.092773,-00000.571289,-00000.068359,-00000.058594,-00000.078125
0000000014737,00002.709961,00002.460938,00002.192383,00003.164063,00002.680664,00002.656250,00002.709961,00003.217773,00002.841797,00002.597656,-00000.439453,-00000.097656,-00000.571289,-00000.063477,-00000.058594,-00000.078125
0000000014738,00002.709961,00002.460938,00002.187500,00003.168945,00002.675781,00002.661133,00002.705078,00003.217773,00002.846680,00002.592773,-00000.439453,-00000.092773,-00000.571289,-00000.063477,-00000.058594,-00000.073242
0000000014739,00002.705078,00002.465820,00002.187500,00003.164063,00002.680664,00002.656250,00002.709961,00003.217773,00002.846680,00002.592773,-00000.439453,-00000.092773,-00000.566406,-00000.063477,-00000.058594,-00000.073242
0000000014740,00002.705078,00002.465820,00002.187500,00003.168945,00002.680664,00002.656250,00002.709961,00003.217773,00002.846680,00002.592773,-00000.439453,-00000.092773,-00000.571289,-00000.063477,-00000.058594,-00000.078125
0000000014741,00002.709961,00002.465820,00002.187500,00003.173828,00002.675781,00002.661133,00002.709961,00003.217773,00002.846680,00002.592773,-00000.434570,-00000.097656,-00000.571289,-00000.063477,-00000.053711,-00000.078125
0000000014742,00002.714844,00002.460938,00002.192383,00003.168945,00002.675781,00002.661133,00002.705078,00003.222656,00002.841797,00002.592773,-00000.439453,-00000.097656,-00000.571289,-00000.063477,-00000.053711,-00000.078125
0000000014743,00002.705078,00002.460938,00002.187500,00003.164063,00002.675781,00002.661133,00002.709961,00003.212891,00002.846680,00002.592773,-00000.439453,-00000.092773,-00000.571289,-00000.063477,-00000.053711,-00000.078125
0000000014744,00002.709961,00002.465820,00002.187500,00003.164063,00002.680664,00002.656250,00002.709961,00003.217773,00002.841797,00002.592773,-00000.439453,-00000.092773,-00000.566406,-00000.063477,-00000.048828,-00000.073242
0000000014745,00002.714844,00002.460938,00002.192383,00003.164063,00002.680664,00002.661133,00002.705078,00003.217773,00002.836914,00002.592773,-00000.434570,-00000.092773,-00000.566406,-00000.063477,-00000.048828,-00000.073242
0000000014746,00002.709961,00002.460938,00002.192383,00003.164063,00002.685547,00002.661133,00002.709961,00003.217773,00002.846680,00002.597656,-00000.434570,-00000.092773,-00000.566406,-00000.058594,-00000.053711,-00000.073242
0000000014747,00002.705078,00002.465820,00002.192383,00003.164063,00002.680664,00002.661133,00002.714844,00003.217773,00002.846680,00002.592773,-00000.434570,-00000.092773,-00000.566406,-00000.063477,-00000.048828,-00000.073242
0000000014748,00002.709961,00002.465820,00002.187500,00003.164063,00002.675781,00002.656250,00002.709961,00003.212891,00002.846680,00002.592773,-00000.434570,-00000.092773,-00000.571289,-00000.063477,-00000.048828,-00000.073242
0000000014749,00002.714844,00002.460938,00002.192383,00003.164063,00002.680664,00002.661133,00002.709961,00003.222656,00002.841797,00002.597656,-00000.439453,-00000.092773,-00000.566406,-00000.063477,-00000.053711,-00000.073242
0000000014750,00002.714844,00002.460938,00002.192383,00003.164063,00002.675781,00002.661133,00002.709961,00003.222656,00002.841797,00002.592773,-00000.439453,-00000.092773,-00000.566406,-00000.058594,-00000.053711,-00000.078125
0000000014751,00002.705078,00002.465820,00002.187500,00003.164063,00002.680664,00002.661133,00002.709961,00003.217773,00002.846680,00002.592773,-00000.444336,-00000.087891,-00000.561523,-00000.058594,-00000.048828,-00000.078125
0000000014752,00002.709961,00002.460938,00002.187500,00003.164063,00002.675781,00002.661133,00002.705078,00003.217773,00002.841797,00002.587891,-00000.449219,-00000.087891,-00000.566406,-00000.063477,-00000.048828,-00000.078125
0000000014753,00002.709961,00002.465820,00002.187500,00003.168945,00002.675781,00002.661133,00002.709961,00003.217773,00002.846680,00002.592773,-00000.449219,-00000.087891,-00000.561523,-00000.063477,-00000.048828,-00000.073242
0000000014754,00002.709961,00002.465820,00002.192383,00003.159180,00002.675781,00002.656250,00002.709961,00003.212891,00002.841797,00002.587891,-00000.454102,-00000.083008,-00000.561523,-00000.063477,-00000.048828,-00000.078125
0000000014755,00002.709961,00002.465820,00002.187500,00003.164063,00002.675781,00002.661133,00002.705078,00003.217773,00002.846680,00002.587891,-00000.449219,-00000.087891,-00000.561523,-00000.063477,-00000.048828,-00000.078125
0000000014756,00002.709961,00002.465820,00002.192383,00003.168945,00002.680664,00002.661133,00002.709961,00003.217773,00002.846680,00002.592773,-00000.449219,-00000.083008,-00000.566406,-00000.063477,-00000.053711,-00000.078125
0000000014757,00002.709961,00002.465820,00002.192383,00003.164063,00002.675781,00002.661133,00002.709961,00003.212891,00002.846680,00002.587891,-00000.449219,-00000.087891,-00000.561523,-00000.063477,-00000.053711,-00000.083008
0000000014758,00002.709961,00002.465820,00002.192383,00003.168945,00002.675781,00002.661133,00002.709961,00003.217773,00002.841797,00002.592773,-00000.444336,-00000.087891,-00000.561523,-00000.063477,-00000.058594,-00000.078125
0000000014759,00002.705078,00002.465820,00002.187500,00003.168945,00002.675781,00002.661133,00002.709961,00003.217773,00002.841797,00002.592773,-00000.444336,-00000.083008,-00000.556641,-00000.058594,-00000.053711,-00000.078125
0000000014760,00002.709961,00002.456055,00002.192383,00003.164063,00002.680664,00002.661133,00002.709961,00003.222656,00002.841797,00002.597656,-00000.444336,-00000.083008,-00000.556641,-00000.053711,-00000.043945,-00000.078125
0000000014761,00002.714844,00002.460938,00002.192383,00003.164063,00002.680664,00002.661133,00002.705078,00003.222656,00002.841797,00002.597656,-00000.444336,-00000.083008,-00000.561523,-00000.058594,-00000.048828,-00000.078125
0000000014762,00002.714844,00002.465820,00002.197266,00003.164063,00002.685547,00002.666016,00002.709961,00003.227539,00002.846680,00002.602539,-00000.444336,-00000.087891,-00000.561523,-00000.063477,-00000.053711,-00000.073242
0000000014763,00002.714844,00002.460938,00002.197266,00003.164063,00002.675781,00002.661133,00002.705078,00003.217773,00002.841797,00002.597656,-00000.439453,-00000.087891,-00000.561523,-00000.063477,-00000.053711,-00000.073242
0000000014764,00002.709961,00002.465820,00002.192383,00003.164063,00002.680664,00002.656250,00002.709961,00003.217773,00002.841797,00002.597656,-00000.439453,-00000.087891,-00000.566406,-00000.063477,-00000.048828,-00000.073242
0000000014765,00002.714844,00002.465820,00002.197266,00003.164063,00002.685547,00002.661133,00002.709961,00003.217773,00002.841797,00002.597656,-00000.439453,-00000.087891,-00000.561523,-00000.063477,-00000.053711,-00000.073242
0000000014766,00002.709961,00002.465820,00002.187500,00003.164063,00002.680664,00002.661133,00002.709961,00003.217773,00002.846680,00002.597656,-00000.439453,-00000.087891,-00000.561523,-00000.063477,-00000.048828,-00000.073242
0000000014767,00002.714844,00002.465820,00002.192383,00003.159180,00002.680664,00002.661133,00002.709961,00003.217773,00002.846680,00002.597656,-00000.439453,-00000.087891,-00000.561523,-00000.063477,-00000.039063,-00000.073242
0000000014768,00002.709961,00002.465820,00002.192383,00003.164063,00002.680664,00002.656250,00002.709961,00003.212891,00002.851563,00002.597656,-00000.439453,-00000.087891,-00000.566406,-00000.063477,-00000.043945,-00000.073242
0000000014769,00002.714844,00002.465820,00002.192383,00003.168945,00002.675781,00002.661133,00002.709961,00003.217773,00002.851563,00002.592773,-00000.439453,-00000.087891,-00000.566406,-00000.063477,-00000.048828,-00000.068359
0000000014770,00002.709961,00002.465820,00002.192383,00003.164063,00002.680664,00002.661133,00002.709961,00003.217773,00002.851563,00002.597656,-00000.434570,-00000.087891,-00000.561523,-00000.063477,-00000.048828,-00000.068359
0000000014771,00002.719727,00002.465820,00002.197266,00003.168945,00002.680664,00002.666016,00002.709961,00003.227539,00002.851563,00002.597656,-00000.434570,-00000.087891,-00000.561523,-00000.063477,-00000.043945,-00000.068359
0000000014772,00002.714844,00002.460938,00002.197266,00003.164063,00002.680664,00002.661133,00002.705078,00003.217773,00002.846680,00002.597656,-00000.429688,-00000.083008,-00000.561523,-00000.058594,-00000.048828,-00000.073242
0000000014773,00002.714844,00002.460938,00002.192383,00003.168945,00002.675781,00002.666016,00002.705078,00003.222656,00002.846680,00002.597656,-00000.429688,-00000.087891,-00000.561523,-00000.063477,-00000.053711,-00000.078125
0000000014774,00002.714844,00002.460938,00002.192383,00003.164063,00002.680664,00002.666016,00002.709961,00003.222656,00002.846680,00002.602539,-00000.434570,-00000.092773,-00000.566406,-00000.068359,-00000.063477,-00000.078125
0000000014775,00002.714844,00002.460938,00002.187500,00003.164063,00002.670898,00002.661133,00002.705078,00003.212891,00002.841797,00002.592773,-00000.434570,-00000.092773,-00000.566406,-00000.068359,-00000.068359,-00000.073242
0000000014776,00002.709961,00002.465820,00002.192383,00003.168945,00002.675781,00002.666016,00002.709961,00003.217773,00002.846680,00002.597656,-00000.434570,-00000.087891,-00000.561523,-00000.063477,-00000.068359,-00000.078125
0000000014777,00002.709961,00002.460938,00002.187500,00003.164063,00002.675781,00002.666016,00002.709961,00003.217773,00002.846680,00002.597656,-00000.429688,-00000.087891,-00000.561523,-00000.063477,-00000.068359,-00000.078125
0000000014778,00002.709961,00002.460938,00002.187500,00003.168945,00002.675781,00002.666016,00002.705078,00003.217773,00002.841797,00002.592773,-00000.429688,-00000.087891,-00000.561523,-00000.063477,-00000.063477,-00000.078125
0000000014779,00002.709961,00002.456055,00002.187500,00003.159180,00002.680664,00002.661133,00002.705078,00003.217773,00002.841797,00002.597656,-00000.434570,-00000.087891,-00000.561523,-00000.068359,-00000.063477,-00000.078125
0000000014780,00002.709961,00002.460938,00002.187500,00003.168945,00002.675781,00002.661133,00002.705078,00003.217773,00002.841797,00002.592773,-00000.439453,-00000.087891,-00000.566406,-00000.068359,-00000.068359,-00000.078125
0000000014781,00002.709961,00002.460938,00002.192383,00003.159180,00002.680664,00002.661133,00002.705078,00003.217773,00002.841797,00002.597656,-00000.439453,-00000.087891,-00000.566406,-00000.068359,-00000.073242,-00000.078125
0000000014782,00002.714844,00002.460938,00002.192383,00003.164063,00002.675781,00002.666016,00002.705078,00003.222656,00002.841797,00002.597656,-00000.444336,-00000.087891,-00000.561523,-00000.068359,-00000.073242,-00000.078125
0000000014783,00002.709961,00002.465820,00002.187500,00003.173828,00002.680664,00002.666016,00002.714844,00003.217773,00002.851563,00002.597656,-00000.439453,-00000.087891,-00000.566406,-00000.068359,-00000.073242,-00000.078125
0000000014784,00002.709961,00002.465820,00002.187500,00003.168945,00002.680664,00002.666016,00002.709961,00003.217773,00002.851563,00002.592773,-00000.439453,-00000.083008,-00000.561523,-00000.068359,-00000.073242,-00000.083008
0000000014785,00002.705078,00002.460938,00002.182617,00003.164063,00002.675781,00002.656250,00002.709961,00003.212891,00002.846680,00002.587891,-00000.439453,-00000.083008,-00000.561523,-00000.068359,-00000.083008,-00000.083008
0000000014786,00002.714844,00002.460938,00002.187500,00003.164063,00002.675781,00002.666016,00002.705078,00003.217773,00002.841797,00002.587891,-00000.439453,-00000.083008,-00000.561523,-00000.068359,-00000.083008,-00000.087891
0000000014787,00002.714844,00002.460938,00002.187500,00003.164063,00002.675781,00002.661133,00002.705078,00003.217773,00002.841797,00002.592773,-00000.439453,-00000.083008,-00000.556641,-00000.068359,-00000.078125,-00000.087891
0000000014788,00002.709961,00002.465820,00002.187500,00003.168945,00002.680664,00002.661133,00002.709961,00003.217773,00002.846680,00002.587891,-00000.434570,-00000.078125,-00000.556641,-00000.068359,-00000.078125,-00000.092773
0000000014789,00002.719727,00002.460938,00002.187500,00003.164063,00002.675781,00002.666016,00002.705078,00003.222656,00002.841797,00002.583008,-00000.434570,-00000.078125,-00000.556641,-00000.068359,-00000.078125,-00000.097656
0000000014790,00002.719727,00002.456055,00002.192383,00003.164063,00002.680664,00002.666016,00002.705078,00003.217773,00002.841797,00002.583008,-00000.429688,-00000.078125,-00000.556641,-00000.068359,-00000.083008,-00000.102539
0000000014791,00002.719727,00002.460938,00002.192383,00003.159180,00002.680664,00002.661133,00002.709961,00003.222656,00002.841797,00002.583008,-00000.429688,-00000.078125,-00000.556641,-00000.068359,-00000.083008,-00000.097656
0000000014792,00002.719727,00002.460938,00002.192383,00003.159180,00002.680664,00002.666016,00002.709961,00003.227539,00002.841797,00002.587891,-00000.429688,-00000.078125,-00000.556641,-00000.068359,-00000.078125,-00000.092773
0000000014793,00002.719727,00002.460938,00002.192383,00003.164063,00002.680664,00002.661133,00002.709961,00003.222656,00002.841797,00002.583008,-00000.429688,-00000.083008,-00000.561523,-00000.068359,-00000.078125,-00000.092773
0000000014794,00002.714844,00002.460938,00002.187500,00003.159180,00002.680664,00002.661133,00002.709961,00003.217773,00002.841797,00002.578125,-00000.429688,-00000.083008,-00000.556641,-00000.063477,-00000.073242,-00000.087891
0000000014795,00002.714844,00002.460938,00002.187500,00003.159180,00002.680664,00002.661133,00002.709961,00003.222656,00002.841797,00002.578125,-00000.424805,-00000.083008,-00000.556641,-00000.063477,-00000.073242,-00000.092773
0000000014796,00002.709961,00002.465820,00002.182617,00003.168945,00002.675781,00002.661133,00002.705078,00003.217773,00002.846680,00002.578125,-00000.424805,-00000.083008,-00000.556641,-00000.063477,-00000.078125,-00000.092773
0000000014797,00002.719727,00002.460938,00002.187500,00003.164063,00002.680664,00002.666016,00002.709961,00003.227539,00002.846680,00002.583008,-00000.424805,-00000.083008,-00000.556641,-00000.063477,-00000.078125,-00000.092773
0000000014798,00002.714844,00002.465820,00002.187500,00003.168945,00002.675781,00002.666016,00002.709961,00003.217773,00002.851563,00002.583008,-00000.424805,-00000.083008,-00000.561523,-00000.063477,-00000.073242,-00000.092773
0000000014799,00002.714844,00002.460938,00002.187500,00003.164063,00002.675781,00002.661133,00002.705078,00003.212891,00002.846680,00002.578125,-00000.424805,-00000.083008,-00000.556641,-00000.063477,-00000.073242,-00000.092773
0000000014800,00002.714844,00002.460938,00002.192383,00003.159180,00002.680664,00002.661133,00002.709961,00003.222656,00002.841797,00002.583008,-00000.424805,-00000.083008,-00000.561523,-00000.063477,-00000.068359,-00000.087891
0000000014801,00002.719727,00002.460938,00002.192383,00003.164063,00002.680664,00002.661133,00002.709961,00003.222656,00002.841797,00002.583008,-00000.424805,-00000.087891,-00000.561523,-00000.063477,-00000.063477,-00000.083008
0000000014802,00002.714844,00002.460938,00002.192383,00003.164063,00002.675781,00002.661133,00002.709961,00003.222656,00002.841797,00002.583008,-00000.424805,-00000.087891,-00000.561523,-00000.063477,-00000.058594,-00000.083008
0000000014803,00002.714844,00002.460938,00002.187500,00003.159180,00002.675781,00002.661133,00002.705078,00003.222656,00002.841797,00002.587891,-00000.424805,-00000.083008,-00000.561523,-00000.063477,-00000.063477,-00000.083008
0000000014804,00002.719727,00002.460938,00002.192383,00003.164063,00002.680664,00002.666016,00002.705078,00003.222656,00002.841797,00002.583008,-00000.424805,-00000.083008,-00000.556641,-00000.063477,-00000.063477,-00000.083008
0000000014805,00002.719727,00002.460938,00002.192383,00003.168945,00002.675781,00002.666016,00002.705078,00003.222656,00002.841797,00002.583008,-00000.424805,-00000.083008,-00000.556641,-00000.063477,-00000.063477,-00000.083008
0000000014806,00002.719727,00002.460938,00002.192383,00003.164063,00002.680664,00002.661133,00002.709961,00003.222656,00002.841797,00002.583008,-00000.424805,-00000.083008,-00000.561523,-00000.063477,-00000.058594,-00000.083008
0000000014807,00002.714844,00002.465820,00002.187500,00003.168945,00002.675781,00002.666016,00002.709961,00003.222656,00002.851563,00002.583008,-00000.424805,-00000.087891,-00000.561523,-00000.063477,-00000.063477,-00000.083008
0000000014808,00002.714844,00002.465820,00002.187500,00003.164063,00002.675781,00002.666016,00002.709961,00003.212891,00002.851563,00002.578125,-00000.424805,-00000.083008,-00000.561523,-00000.063477,-00000.063477,-00000.083008
0000000014809,00002.724609,00002.465820,00002.187500,00003.168945,00002.675781,00002.666016,00002.705078,00003.222656,00002.846680,00002.578125,-00000.424805,-00000.087891,-00000.561523,-00000.063477,-00000.063477,-00000.083008
0000000014810,00002.714844,00002.470703,00002.187500,00003.164063,00002.675781,00002.666016,00002.709961,00003.217773,00002.846680,00002.578125,-00000.429688,-00000.087891,-00000.561523,-00000.068359,-00000.063477,-00000.083008
0000000014811,00002.719727,00002.470703,00002.192383,00003.164063,00002.685547,00002.666016,00002.714844,00003.227539,00002.851563,00002.583008,-00000.424805,-00000.087891,-00000.561523,-00000.068359,-00000.058594,-00000.083008
0000000014812,00002.719727,00002.460938,00002.192383,00003.164063,00002.675781,00002.666016,00002.705078,00003.222656,00002.846680,00002.578125,-00000.424805,-00000.087891,-00000.561523,-00000.068359,-00000.058594,-00000.083008
0000000014813,00002.719727,00002.465820,00002.192383,00003.164063,00002.675781,00002.666016,00002.705078,00003.227539,00002.846680,00002.578125,-00000.424805,-00000.083008,-00000.561523,-00000.063477,-00000.058594,-00000.083008
0000000014814,00002.719727,00002.465820,00002.192383,00003.168945,00002.675781,00002.670898,00002.705078,00003.227539,00002.846680,00002.583008,-00000.424805,-00000.083008,-00000.561523,-00000.063477,-00000.058594,-00000.083008
0000000014815,00002.719727,00002.465820,00002.192383,00003.164063,00002.680664,00002.666016,00002.705078,00003.227539,00002.846680,00002.583008,-00000.424805,-00000.083008,-00000.561523,-00000.063477,-00000.053711,-00000.083008
0000000014816,00002.719727,00002.470703,00002.192383,00003.164063,00002.685547,00002.666016,00002.714844,00003.227539,00002.851563,00002.583008,-00000.424805,-00000.083008,-00000.561523,-00000.063477,-00000.058594,-00000.083008
0000000014817,00002.719727,00002.465820,00002.192383,00003.164063,00002.680664,00002.666016,00002.709961,00003.227539,00002.851563,00002.583008,-00000.429688,-00000.087891,-00000.561523,-00000.063477,-00000.063477,-00000.083008
0000000014818,00002.719727,00002.470703,00002.187500,00003.164063,00002.675781,00002.661133,00002.709961,00003.217773,00002.851563,00002.578125,-00000.424805,-00000.083008,-00000.561523,-00000.063477,-00000.058594,-00000.083008
0000000014819,00002.724609,00002.475586,00002.192383,00003.168945,00002.675781,00002.670898,00002.709961,00003.222656,00002.851563,00002.578125,-00000.424805,-00000.087891,-00000.561523,-00000.063477,-00000.058594,-00000.083008
0000000014820,00002.719727,00002.470703,00002.192383,00003.164063,00002.680664,00002.666016,00002.709961,00003.222656,00002.846680,00002.583008,-00000.424805,-00000.083008,-00000.556641,-00000.058594,-00000.058594,-00000.083008
0000000014821,00002.719727,00002.470703,00002.192383,00003.168945,00002.675781,00002.670898,00002.709961,00003.227539,00002.851563,00002.578125,-00000.424805,-00000.083008,-00000.556641,-00000.058594,-00000.058594,-00000.083008
0000000014822,00002.719727,00002.470703,00002.192383,00003.168945,00002.675781,00002.670898,00002.709961,00003.227539,00002.856445,00002.583008,-00000.424805,-00000.083008,-00000.556641,-00000.063477,-00000.058594,-00000.083008
0000000014823,00002.724609,00002.465820,00002.197266,00003.168945,00002.680664,00002.666016,00002.705078,00003.227539,00002.851563,00002.583008,-00000.424805,-00000.083008,-00000.556641,-00000.063477,-00000.063477,-00000.087891
0000000014824,00002.719727,00002.475586,00002.192383,00003.173828,00002.680664,00002.666016,00002.714844,00003.227539,00002.856445,00002.583008,-00000.419922,-00000.083008,-00000.556641,-00000.058594,-00000.063477,-00000.083008
0000000014825,00002.719727,00002.470703,00002.192383,00003.164063,00002.680664,00002.666016,00002.709961,00003.222656,00002.851563,00002.583008,-00000.419922,-00000.083008,-00000.556641,-00000.058594,-00000.058594,-00000.083008
0000000014826,00002.724609,00002.465820,00002.192383,00003.164063,00002.680664,00002.666016,00002.705078,00003.227539,00002.846680,00002.583008,-00000.424805,-00000.083008,-00000.561523,-00000.063477,-00000.058594,-00000.078125
0000000014827,00002.719727,00002.465820,00002.197266,00003.164063,00002.685547,00002.666016,00002.709961,00003.222656,00002.851563,00002.583008,-00000.424805,-00000.087891,-00000.561523,-00000.068359,-00000.068359,-00000.078125
0000000014828,00002.714844,00002.470703,00002.192383,00003.173828,00002.675781,00002.666016,00002.709961,00003.217773,00002.851563,00002.578125,-00000.419922,-00000.087891,-00000.561523,-00000.068359,-00000.073242,-00000.078125
0000000014829,00002.719727,00002.470703,00002.192383,00003.173828,00002.680664,00002.666016,00002.714844,00003.217773,00002.851563,00002.583008,-00000.419922,-00000.083008,-00000.561523,-00000.068359,-00000.073242,-00000.083008
0000000014830,00002.714844,00002.465820,00002.187500,00003.164063,00002.675781,00002.661133,00002.709961,00003.217773,00002.846680,00002.578125,-00000.419922,-00000.083008,-00000.561523,-00000.063477,-00000.068359,-00000.078125
0000000014831,00002.714844,00002.460938,00002.187500,00003.159180,00002.680664,00002.661133,00002.705078,00003.217773,00002.846680,00002.578125,-00000.419922,-00000.083008,-00000.561523,-00000.063477,-00000.058594,-00000.078125
0000000014832,00002.714844,00002.465820,00002.187500,00003.164063,00002.675781,00002.661133,00002.709961,00003.217773,00002.846680,00002.578125,-00000.419922,-00000.083008,-00000.561523,-00000.063477,-00000.053711,-00000.078125
0000000014833,00002.719727,00002.460938,00002.187500,00003.164063,00002.680664,00002.661133,00002.709961,00003.222656,00002.846680,00002.583008,-00000.419922,-00000.087891,-00000.561523,-00000.063477,-00000.053711,-00000.078125
0000000014834,00002.714844,00002.465820,00002.187500,00003.168945,00002.680664,00002.670898,00002.714844,00003.222656,00002.851563,00002.583008,-00000.424805,-00000.087891,-00000.561523,-00000.068359,-00000.058594,-00000.078125
0000000014835,00002.719727,00002.460938,00002.187500,00003.164063,00002.675781,00002.661133,00002.705078,00003.217773,00002.841797,00002.578125,-00000.424805,-00000.087891,-00000.561523,-00000.068359,-00000.063477,-00000.083008
0000000014836,00002.719727,00002.460938,00002.187500,00003.164063,00002.680664,00002.661133,00002.709961,00003.222656,00002.846680,00002.583008,-00000.424805,-00000.087891,-00000.561523,-00000.068359,-00000.063477,-00000.083008
0000000014837,00002.719727,00002.460938,00002.192383,00003.164063,00002.680664,00002.666016,00002.709961,00003.222656,00002.846680,00002.583008,-00000.424805,-00000.087891,-00000.561523,-00000.068359,-00000.058594,-00000.078125
0000000014838,00002.719727,00002.460938,00002.192383,00003.168945,00002.680664,00002.670898,00002.709961,00003.227539,00002.851563,00002.583008,-00000.424805,-00000.087891,-00000.566406,-00000.068359,-00000.058594,-00000.078125
0000000014839,00002.719727,00002.460938,00002.187500,00003.164063,00002.680664,00002.661133,00002.709961,00003.222656,00002.846680,00002.583008,-00000.424805,-00000.087891,-00000.566406,-00000.068359,-00000.058594,-00000.078125
0000000014840,00002.719727,00002.460938,00002.192383,00003.168945,00002.675781,00002.670898,00002.709961,00003.227539,00002.851563,00002.583008,-00000.424805,-00000.087891,-00000.561523,-00000.068359,-00000.053711,-00000.078125
0000000014841,00002.714844,00002.465820,00002.182617,00003.168945,00002.675781,00002.666016,00002.709961,00003.217773,00002.851563,00002.578125,-00000.424805,-00000.083008,-00000.561523,-00000.068359,-00000.058594,-00000.078125
0000000014842,00002.719727,00002.456055,00002.187500,00003.164063,00002.675781,00002.666016,00002.705078,00003.222656,00002.846680,00002.583008,-00000.419922,-00000.083008,-00000.561523,-00000.063477,-00000.058594,-00000.078125
0000000014843,00002.719727,00002.465820,00002.187500,00003.168945,00002.680664,00002.670898,00002.709961,00003.222656,00002.856445,00002.583008,-00000.424805,-00000.087891,-00000.556641,-00000.063477,-00000.058594,-00000.078125
0000000014844,00002.714844,00002.465820,00002.187500,00003.168945,00002.675781,00002.666016,00002.709961,00003.217773,00002.851563,00002.578125,-00000.424805,-00000.087891,-00000.561523,-00000.063477,-00000.058594,-00000.078125
0000000014845,00002.714844,00002.460938,00002.187500,00003.159180,00002.680664,00002.661133,00002.709961,00003.217773,00002.841797,00002.578125,-00000.424805,-00000.087891,-00000.561523,-00000.068359,-00000.063477,-00000.083008
0000000014846,00002.714844,00002.460938,00002.187500,00003.164063,00002.680664,00002.661133,00002.709961,00003.217773,00002.846680,00002.583008,-00000.424805,-00000.083008,-00000.556641,-00000.063477,-00000.063477,-00000.083008
0000000014847,00002.705078,00002.460938,00002.182617,00003.154297,00002.670898,00002.656250,00002.705078,00003.212891,00002.846680,00002.578125,-00000.419922,-00000.083008,-00000.556641,-00000.063477,-00000.063477,-00000.083008
0000000014848,00002.719727,00002.460938,00002.187500,00003.159180,00002.685547,00002.666016,00002.714844,00003.227539,00002.851563,00002.587891,-00000.424805,-00000.083008,-00000.556641,-00000.063477,-00000.058594,-00000.078125
0000000014849,00002.709961,00002.460938,00002.187500,00003.164063,00002.680664,00002.661133,00002.709961,00003.222656,00002.851563,00002.583008,-00000.424805,-00000.083008,-00000.556641,-00000.063477,-00000.053711,-00000.078125
0000000014850,00002.714844,00002.460938,00002.187500,00003.164063,00002.675781,00002.666016,00002.705078,00003.217773,00002.846680,00002.583008,-00000.419922,-00000.083008,-00000.556641,-00000.063477,-00000.058594,-00000.078125
0000000014851,00002.719727,00002.460938,00002.187500,00003.168945,00002.675781,00002.666016,00002.709961,00003.227539,00002.851563,00002.583008,-00000.419922,-00000.083008,-00000.551758,-00000.058594,-00000.058594,-00000.078125
0000000014852,00002.719727,00002.460938,00002.192383,00003.164063,00002.680664,00002.666016,00002.705078,00003.222656,00002.846680,00002.583008,-00000.419922,-00000.083008,-00000.551758,-00000.058594,-00000.058594,-00000.078125
0000000014853,00002.719727,00002.460938,00002.187500,00003.168945,00002.675781,00002.666016,00002.705078,00003.222656,00002.846680,00002.583008,-00000.419922,-00000.083008,-00000.551758,-00000.058594,-00000.053711,-00000.083008
0000000014854,00002.714844,00002.465820,00002.187500,00003.168945,00002.675781,00002.666016,00002.709961,00003.217773,00002.851563,00002.583008,-00000.419922,-00000.083008,-00000.556641,-00000.058594,-00000.053711,-00000.078125
0000000014855,00002.709961,00002.465820,00002.182617,00003.164063,00002.675781,00002.661133,00002.709961,00003.217773,00002.851563,00002.578125,-00000.419922,-00000.083008,-00000.556641,-00000.058594,-00000.053711,-00000.073242
0000000014856,00002.714844,00002.460938,00002.182617,00003.164063,00002.675781,00002.661133,00002.700195,00003.217773,00002.841797,00002.578125,-00000.419922,-00000.083008,-00000.556641,-00000.058594,-00000.058594,-00000.078125
0000000014857,00002.719727,00002.460938,00002.187500,00003.168945,00002.675781,00002.666016,00002.705078,00003.222656,00002.846680,00002.583008,-00000.415039,-00000.083008,-00000.551758,-00000.058594,-00000.053711,-00000.078125
0000000014858,00002.714844,00002.460938,00002.187500,00003.164063,00002.680664,00002.661133,00002.714844,00003.222656,00002.846680,00002.587891,-00000.415039,-00000.083008,-00000.551758,-00000.063477,-00000.053711,-00000.078125
0000000014859,00002.709961,00002.465820,00002.187500,00003.173828,00002.685547,00002.661133,00002.714844,00003.222656,00002.851563,00002.592773,-00000.419922,-00000.083008,-00000.551758,-00000.063477,-00000.048828,-00000.073242
0000000014860,00002.709961,00002.465820,00002.182617,00003.173828,00002.675781,00002.666016,00002.709961,00003.217773,00002.851563,00002.587891,-00000.419922,-00000.083008,-00000.551758,-00000.063477,-00000.043945,-00000.068359
0000000014861,00002.709961,00002.460938,00002.187500,00003.168945,00002.680664,00002.661133,00002.709961,00003.217773,00002.851563,00002.592773,-00000.419922,-00000.083008,-00000.556641,-00000.063477,-00000.048828,-00000.068359
0000000014862,00002.709961,00002.465820,00002.187500,00003.173828,00002.675781,00002.666016,00002.709961,00003.217773,00002.851563,00002.587891,-00000.419922,-00000.083008,-00000.556641,-00000.063477,-00000.048828,-00000.073242
0000000014863,00002.714844,00002.460938,00002.187500,00003.168945,00002.675781,00002.666016,00002.705078,00003.222656,00002.846680,00002.592773,-00000.419922,-00000.087891,-00000.556641,-00000.063477,-00000.053711,-00000.073242
0000000014864,00002.714844,00002.460938,00002.192383,00003.168945,00002.680664,00002.666016,00002.709961,00003.217773,00002.851563,00002.587891,-00000.419922,-00000.087891,-00000.556641,-00000.063477,-00000.048828,-00000.073242
0000000014865,00002.719727,00002.460938,00002.187500,00003.168945,00002.675781,00002.666016,00002.705078,00003.222656,00002.846680,00002.592773,-00000.419922,-00000.083008,-00000.551758,-00000.063477,-00000.048828,-00000.073242
0000000014866,00002.709961,00002.460938,00002.187500,00003.168945,00002.680664,00002.666016,00002.709961,00003.222656,00002.851563,00002.592773,-00000.419922,-00000.087891,-00000.556641,-00000.063477,-00000.043945,-00000.068359
0000000014867,00002.709961,00002.460938,00002.187500,00003.164063,00002.680664,00002.656250,00002.709961,00003.217773,00002.851563,00002.587891,-00000.419922,-00000.087891,-00000.556641,-00000.063477,-00000.043945,-00000.068359
0000000014868,00002.714844,00002.460938,00002.192383,00003.168945,00002.680664,00002.661133,00002.709961,00003.222656,00002.851563,00002.592773,-00000.419922,-00000.087891,-00000.556641,-00000.063477,-00000.043945,-00000.073242
0000000014869,00002.714844,00002.460938,00002.192383,00003.173828,00002.680664,00002.666016,00002.705078,00003.222656,00002.856445,00002.592773,-00000.419922,-00000.087891,-00000.561523,-00000.063477,-00000.048828,-00000.073242
0000000014870,00002.709961,00002.465820,00002.187500,00003.178711,00002.675781,00002.666016,00002.709961,00003.217773,00002.861328,00002.587891,-00000.424805,-00000.087891,-00000.561523,-00000.063477,-00000.053711,-00000.073242
0000000014871,00002.719727,00002.460938,00002.192383,00003.178711,00002.680664,00002.670898,00002.709961,00003.222656,00002.861328,00002.592773,-00000.424805,-00000.087891,-00000.561523,-00000.068359,-00000.053711,-00000.078125
0000000014872,00002.714844,00002.460938,00002.192383,00003.173828,00002.680664,00002.666016,00002.705078,00003.222656,00002.861328,00002.592773,-00000.424805,-00000.087891,-00000.561523,-00000.063477,-00000.053711,-00000.078125
0000000014873,00002.719727,00002.465820,00002.192383,00003.183594,00002.680664,00002.670898,00002.709961,00003.227539,00002.866211,00002.592773,-00000.424805,-00000.092773,-00000.561523,-00000.068359,-00000.053711,-00000.078125
0000000014874,00002.709961,00002.470703,00002.192383,00003.183594,00002.680664,00002.670898,00002.714844,00003.222656,00002.871094,00002.592773,-00000.424805,-00000.087891,-00000.561523,-00000.063477,-00000.053711,-00000.078125
0000000014875,00002.714844,00002.460938,00002.192383,00003.178711,00002.675781,00002.666016,00002.705078,00003.222656,00002.861328,00002.597656,-00000.424805,-00000.087891,-00000.556641,-00000.063477,-00000.058594,-00000.083008
0000000014876,00002.714844,00002.460938,00002.197266,00003.173828,00002.680664,00002.666016,00002.709961,00003.222656,00002.861328,00002.597656,-00000.424805,-00000.087891,-00000.556641,-00000.063477,-00000.058594,-00000.083008
0000000014877,00002.709961,00002.460938,00002.187500,00003.178711,00002.675781,00002.666016,00002.705078,00003.217773,00002.866211,00002.597656,-00000.424805,-00000.087891,-00000.556641,-00000.063477,-00000.058594,-00000.078125
0000000014878,00002.714844,00002.460938,00002.192383,00003.173828,00002.675781,00002.666016,00002.705078,00003.222656,00002.861328,00002.597656,-00000.429688,-00000.087891,-00000.556641,-00000.063477,-00000.058594,-00000.078125
0000000014879,00002.714844,00002.460938,00002.192383,00003.173828,00002.680664,00002.666016,00002.705078,00003.222656,00002.861328,00002.602539,-00000.429688,-00000.087891,-00000.561523,-00000.063477,-00000.063477,-00000.083008
0000000014880,00002.709961,00002.460938,00002.187500,00003.173828,00002.675781,00002.661133,00002.709961,00003.212891,00002.866211,00002.597656,-00000.429688,-00000.087891,-00000.561523,-00000.063477,-00000.068359,-00000.083008
0000000014881,00002.714844,00002.456055,00002.187500,00003.168945,00002.675781,00002.666016,00002.700195,00003.222656,00002.861328,00002.597656,-00000.424805,-00000.087891,-00000.561523,-00000.063477,-00000.068359,-00000.083008
0000000014882,00002.714844,00002.456055,00002.187500,00003.168945,00002.680664,00002.666016,00002.705078,00003.222656,00002.861328,00002.602539,-00000.424805,-00000.087891,-00000.556641,-00000.063477,-00000.063477,-00000.083008
0000000014883,00002.709961,00002.465820,00002.192383,00003.173828,00002.680664,00002.666016,00002.709961,00003.217773,00002.866211,00002.597656,-00000.424805,-00000.087891,-00000.561523,-00000.063477,-00000.063477,-00000.083008
0000000014884,00002.709961,00002.460938,00002.187500,00003.164063,00002.680664,00002.661133,00002.709961,00003.222656,00002.861328,00002.597656,-00000.424805,-00000.087891,-00000.556641,-00000.068359,-00000.063477,-00000.078125
0000000014885,00002.705078,00002.456055,00002.187500,00003.164063,00002.675781,00002.656250,00002.705078,00003.212891,00002.856445,00002.597656,-00000.424805,-00000.087891,-00000.556641,-00000.063477,-00000.063477,-00000.083008
0000000014886,00002.714844,00002.460938,00002.192383,00003.168945,00002.680664,00002.666016,00002.705078,00003.222656,00002.861328,00002.597656,-00000.424805,-00000.087891,-00000.556641,-00000.058594,-00000.063477,-00000.083008
0000000014887,00002.709961,00002.460938,00002.187500,00003.168945,00002.675781,00002.661133,00002.709961,00003.217773,00002.861328,00002.602539,-00000.424805,-00000.083008,-00000.556641,-00000.058594,-00000.063477,-00000.083008
0000000014888,00002.714844,00002.465820,00002.192383,00003.168945,00002.685547,00002.666016,00002.714844,00003.217773,00002.861328,00002.597656,-00000.424805,-00000.087891,-00000.561523,-00000.063477,-00000.063477,-00000.083008
0000000014889,00002.714844,00002.460938,00002.187500,00003.173828,00002.675781,00002.666016,00002.705078,00003.222656,00002.861328,00002.597656,-00000.424805,-00000.087891,-00000.561523,-00000.063477,-00000.068359,-00000.083008
0000000014890,00002.709961,00002.460938,00002.187500,00003.168945,00002.680664,00002.661133,00002.709961,00003.217773,00002.861328,00002.597656,-00000.424805,-00000.087891,-00000.561523,-00000.063477,-00000.068359,-00000.083008
0000000014891,00002.709961,00002.465820,00002.187500,00003.173828,00002.680664,00002.666016,00002.714844,00003.217773,00002.861328,00002.602539,-00000.424805,-00000.087891,-00000.561523,-00000.063477,-00000.068359,-00000.083008
0000000014892,00002.705078,00002.460938,00002.187500,00003.164063,00002.680664,00002.661133,00002.709961,00003.217773,00002.861328,00002.597656,-00000.419922,-00000.087891,-00000.556641,-00000.063477,-00000.068359,-00000.083008
0000000014893,00002.705078,00002.460938,00002.187500,00003.164063,00002.675781,00002.656250,00002.705078,00003.212891,00002.861328,00002.597656,-00000.419922,-00000.087891,-00000.556641,-00000.063477,-00000.063477,-00000.083008
0000000014894,00002.709961,00002.456055,00002.187500,00003.168945,00002.675781,00002.666016,00002.700195,00003.217773,00002.856445,00002.597656,-00000.424805,-00000.087891,-00000.556641,-00000.063477,-00000.063477,-00000.083008
0000000014895,00002.714844,00002.460938,00002.192383,00003.168945,00002.680664,00002.661133,00002.709961,00003.217773,00002.861328,00002.597656,-00000.424805,-00000.087891,-00000.556641,-00000.063477,-00000.063477,-00000.083008
0000000014896,00002.709961,00002.460938,00002.187500,00003.173828,00002.675781,00002.661133,00002.709961,00003.217773,00002.866211,00002.597656,-00000.424805,-00000.087891,-00000.556641,-00000.063477,-00000.068359,-00000.087891
0000000014897,00002.714844,00002.465820,00002.192383,00003.173828,00002.680664,00002.666016,00002.714844,00003.217773,00002.861328,00002.597656,-00000.419922,-00000.083008,-00000.556641,-00000.063477,-00000.063477,-00000.087891
0000000014898,00002.705078,00002.460938,00002.187500,00003.173828,00002.675781,00002.661133,00002.709961,00003.217773,00002.861328,00002.597656,-00000.424805,-00000.087891,-00000.561523,-00000.063477,-00000.063477,-00000.087891
0000000014899,00002.709961,00002.456055,00002.187500,00003.168945,00002.680664,00002.666016,00002.705078,00003.222656,00002.856445,00002.597656,-00000.444336,-00000.092773,-00000.561523,-00000.068359,-00000.063477,-00000.083008
0000000014900,00002.700195,00002.456055,00002.182617,00003.168945,00002.670898,00002.656250,00002.709961,00003.212891,00002.861328,00002.592773,-00000.488281,-00000.087891,-00000.561523,-00000.068359,-00000.068359,-00000.087891
0000000014901,00002.700195,00002.456055,00002.187500,00003.168945,00002.675781,00002.656250,00002.709961,00003.217773,00002.851563,00002.597656,-00000.551758,-00000.083008,-00000.561523,-00000.078125,-00000.073242,-00000.097656
0000000014902,00002.695313,00002.456055,00002.182617,00003.173828,00002.666016,00002.651367,00002.705078,00003.212891,00002.846680,00002.592773,-00000.595703,-00000.083008,-00000.561523,-00000.083008,-00000.073242,-00000.097656
0000000014903,00002.695313,00002.456055,00002.182617,00003.178711,00002.670898,00002.631836,00002.705078,00003.212891,00002.846680,00002.587891,-00000.639648,-00000.083008,-00000.566406,-00000.092773,-00000.058594,-00000.087891
0000000014904,00002.700195,00002.451172,00002.187500,00003.168945,00002.675781,00002.626953,00002.705078,00003.222656,00002.841797,00002.592773,-00000.698242,-00000.087891,-00000.566406,-00000.092773,-00000.048828,-00000.083008
0000000014905,00002.690430,00002.446289,00002.177734,00003.168945,00002.666016,00002.622070,00002.705078,00003.208008,00002.841797,00002.583008,-00000.771484,-00000.102539,-00000.571289,-00000.102539,-00000.048828,-00000.078125
0000000014906,00002.685547,00002.441406,00002.177734,00003.168945,00002.670898,00002.612305,00002.705078,00003.208008,00002.832031,00002.578125,-00000.874023,-00000.107422,-00000.566406,-00000.107422,-00000.048828,-00000.073242
0000000014907,00002.675781,00002.397461,00002.172852,00003.168945,00002.666016,00002.597656,00002.700195,00003.203125,00002.827148,00002.573242,-00000.976563,-00000.117188,-00000.566406,-00000.117188,-00000.058594,-00000.083008
0000000014908,00002.675781,00002.387695,00002.177734,00003.178711,00002.666016,00002.602539,00002.700195,00003.212891,00002.822266,00002.573242,-00001.083984,-00000.126953,-00000.561523,-00000.122070,-00000.078125,-00000.097656
0000000014909,00002.666016,00002.382813,00002.177734,00003.188477,00002.666016,00002.592773,00002.700195,00003.208008,00002.817383,00002.563477,-00001.245117,-00000.146484,-00000.556641,-00000.126953,-00000.097656,-00000.107422
0000000014910,00002.651367,00002.368164,00002.177734,00003.183594,00002.666016,00002.578125,00002.695313,00003.208008,00002.797852,00002.568359,-00001.367188,-00000.156250,-00000.551758,-00000.122070,-00000.083008,-00000.097656
0000000014911,00002.646484,00002.368164,00002.177734,00003.193359,00002.666016,00002.568359,00002.695313,00003.203125,00002.797852,00002.563477,-00001.455078,-00000.166016,-00000.551758,-00000.122070,-00000.073242,-00000.083008
0000000014912,00002.646484,00002.363281,00002.172852,00003.217773,00002.666016,00002.563477,00002.695313,00003.203125,00002.792969,00002.553711,-00001.513672,-00000.175781,-00000.556641,-00000.126953,-00000.078125,-00000.083008
0000000014913,00002.641602,00002.353516,00002.172852,00003.232422,00002.661133,00002.558594,00002.695313,00003.203125,00002.788086,00002.548828,-00001.557617,-00000.185547,-00000.566406,-00000.131836,-00000.087891,-00000.087891
0000000014914,00002.636719,00002.348633,00002.172852,00003.237305,00002.656250,00002.548828,00002.690430,00003.193359,00002.783203,00002.543945,-00001.606445,-00000.190430,-00000.566406,-00000.131836,-00000.102539,-00000.102539
0000000014915,00002.636719,00002.338867,00002.177734,00003.310547,00002.661133,00002.548828,00002.690430,00003.203125,00002.783203,00002.553711,-00001.660156,-00000.200195,-00000.556641,-00000.117188,-00000.112305,-00000.107422
0000000014916,00002.622070,00002.338867,00002.177734,00003.310547,00002.666016,00002.543945,00002.685547,00003.193359,00002.788086,00002.548828,-00001.718750,-00000.214844,-00000.551758,-00000.112305,-00000.107422,-00000.107422
0000000014917,00002.607422,00002.314453,00002.172852,00003.315430,00002.661133,00002.529297,00002.675781,00003.188477,00002.778320,00002.539063,-00001.787109,-00000.239258,-00000.551758,-00000.122070,-00000.092773,-00000.102539
0000000014918,00002.597656,00002.314453,00002.172852,00003.320313,00002.661133,00002.519531,00002.680664,00003.183594,00002.783203,00002.543945,-00001.816406,-00000.249023,-00000.556641,-00000.131836,-00000.102539,-00000.092773
0000000014919,00002.587891,00002.299805,00002.172852,00003.325195,00002.651367,00002.514648,00002.666016,00003.178711,00002.778320,00002.534180,-00001.826172,-00000.253906,-00000.561523,-00000.131836,-00000.122070,-00000.087891
0000000014920,00002.592773,00002.299805,00002.172852,00003.330078,00002.661133,00002.519531,00002.675781,00003.183594,00002.778320,00002.543945,-00001.835938,-00000.258789,-00000.566406,-00000.126953,-00000.136719,-00000.092773
0000000014921,00002.583008,00002.299805,00002.167969,00003.334961,00002.661133,00002.514648,00002.675781,00003.178711,00002.783203,00002.539063,-00001.845703,-00000.258789,-00000.571289,-00000.117188,-00000.146484,-00000.097656
0000000014922,00002.583008,00002.280273,00002.163086,00003.339844,00002.661133,00002.514648,00002.670898,00003.183594,00002.778320,00002.539063,-00001.875000,-00000.268555,-00000.571289,-00000.117188,-00000.136719,-00000.097656
0000000014923,00002.578125,00002.270508,00002.138672,00003.339844,00002.651367,00002.509766,00002.661133,00003.183594,00002.773438,00002.519531,-00001.904297,-00000.283203,-00000.585938,-00000.126953,-00000.131836,-00000.087891
0000000014924,00002.573242,00002.270508,00002.133789,00003.334961,00002.656250,00002.504883,00002.661133,00003.178711,00002.768555,00002.514648,-00001.918945,-00000.292969,-00000.600586,-00000.141602,-00000.131836,-00000.078125
0000000014925,00002.568359,00002.270508,00002.128906,00003.344727,00002.656250,00002.504883,00002.661133,00003.178711,00002.773438,00002.514648,-00001.923828,-00000.297852,-00000.610352,-00000.141602,-00000.136719,-00000.068359
0000000014926,00002.568359,00002.270508,00002.133789,00003.344727,00002.661133,00002.504883,00002.666016,00003.178711,00002.768555,00002.519531,-00001.943359,-00000.302734,-00000.600586,-00000.131836,-00000.141602,-00000.078125
0000000014927,00002.568359,00002.265625,00002.128906,00003.354492,00002.661133,00002.509766,00002.666016,00003.183594,00002.768555,00002.514648,-00001.958008,-00000.307617,-00000.590820,-00000.122070,-00000.131836,-00000.083008
0000000014928,00002.568359,00002.260742,00002.133789,00003.349609,00002.656250,00002.504883,00002.656250,00003.183594,00002.753906,00002.519531,-00001.948242,-00000.312500,-00000.595703,-00000.126953,-00000.131836,-00000.087891
0000000014929,00002.568359,00002.255859,00002.138672,00003.344727,00002.661133,00002.504883,00002.661133,00003.183594,00002.749023,00002.519531,-00001.918945,-00000.307617,-00000.605469,-00000.126953,-00000.136719,-00000.092773
0000000014930,00002.563477,00002.260742,00002.133789,00003.354492,00002.656250,00002.509766,00002.661133,00003.183594,00002.753906,00002.514648,-00001.899414,-00000.307617,-00000.610352,-00000.122070,-00000.131836,-00000.092773
0000000014931,00002.563477,00002.255859,00002.128906,00003.349609,00002.656250,00002.509766,00002.661133,00003.183594,00002.753906,00002.519531,-00001.904297,-00000.307617,-00000.615234,-00000.117188,-00000.117188,-00000.092773
0000000014932,00002.558594,00002.250977,00002.119141,00003.349609,00002.651367,00002.504883,00002.656250,00003.173828,00002.749023,00002.514648,-00001.923828,-00000.312500,-00000.595703,-00000.117188,-00000.102539,-00000.087891
0000000014933,00002.558594,00002.255859,00002.119141,00003.354492,00002.656250,00002.504883,00002.656250,00003.178711,00002.753906,00002.514648,-00001.918945,-00000.317383,-00000.595703,-00000.126953,-00000.107422,-00000.083008
0000000014934,00002.558594,00002.250977,00002.124023,00003.349609,00002.656250,00002.509766,00002.656250,00003.188477,00002.763672,00002.524414,-00001.855469,-00000.317383,-00000.600586,-00000.136719,-00000.131836,-00000.083008
0000000014935,00002.558594,00002.250977,00002.124023,00003.349609,00002.651367,00002.509766,00002.656250,00003.183594,00002.773438,00002.529297,-00001.801758,-00000.307617,-00000.600586,-00000.126953,-00000.126953,-00000.083008
0000000014936,00002.558594,00002.255859,00002.124023,00003.344727,00002.656250,00002.509766,00002.661133,00003.183594,00002.778320,00002.529297,-00001.782227,-00000.307617,-00000.600586,-00000.112305,-00000.097656,-00000.083008
0000000014937,00002.563477,00002.250977,00002.119141,00003.354492,00002.651367,00002.509766,00002.656250,00003.178711,00002.778320,00002.519531,-00001.787109,-00000.307617,-00000.600586,-00000.107422,-00000.073242,-00000.073242
0000000014938,00002.558594,00002.255859,00002.119141,00003.344727,00002.656250,00002.504883,00002.661133,00003.178711,00002.773438,00002.514648,-00001.787109,-00000.307617,-00000.605469,-00000.107422,-00000.078125,-00000.078125
0000000014939,00002.558594,00002.250977,00002.114258,00003.349609,00002.651367,00002.509766,00002.651367,00003.178711,00002.758789,00002.514648,-00001.767578,-00000.307617,-00000.600586,-00000.112305,-00000.092773,-00000.078125
0000000014940,00002.563477,00002.246094,00002.124023,00003.339844,00002.656250,00002.509766,00002.651367,00003.183594,00002.749023,00002.524414,-00001.728516,-00000.302734,-00000.600586,-00000.112305,-00000.112305,-00000.083008
0000000014941,00002.563477,00002.250977,00002.119141,00003.349609,00002.651367,00002.514648,00002.656250,00003.178711,00002.768555,00002.524414,-00001.694336,-00000.297852,-00000.595703,-00000.112305,-00000.112305,-00000.083008
0000000014942,00002.558594,00002.250977,00002.119141,00003.339844,00002.651367,00002.519531,00002.656250,00003.178711,00002.778320,00002.524414,-00001.655273,-00000.297852,-00000.595703,-00000.107422,-00000.078125,-00000.073242
0000000014943,00002.568359,00002.246094,00002.124023,00003.344727,00002.656250,00002.529297,00002.661133,00003.188477,00002.778320,00002.529297,-00001.655273,-00000.312500,-00000.595703,-00000.107422,-00000.058594,-00000.063477
0000000014944,00002.558594,00002.246094,00002.114258,00003.344727,00002.646484,00002.524414,00002.656250,00003.173828,00002.778320,00002.519531,-00001.640625,-00000.312500,-00000.595703,-00000.107422,-00000.063477,-00000.063477
0000000014945,00002.563477,00002.246094,00002.119141,00003.344727,00002.651367,00002.539063,00002.661133,00003.183594,00002.783203,00002.524414,-00001.621094,-00000.307617,-00000.590820,-00000.112305,-00000.078125,-00000.068359
0000000014946,00002.563477,00002.246094,00002.119141,00003.344727,00002.656250,00002.539063,00002.661133,00003.183594,00002.783203,00002.524414,-00001.621094,-00000.307617,-00000.585938,-00000.107422,-00000.087891,-00000.078125
0000000014947,00002.568359,00002.236328,00002.119141,00003.344727,00002.651367,00002.534180,00002.656250,00003.183594,00002.778320,00002.529297,-00001.655273,-00000.317383,-00000.590820,-00000.112305,-00000.092773,-00000.078125
0000000014948,00002.568359,00002.231445,00002.119141,00003.339844,00002.651367,00002.524414,00002.656250,00003.183594,00002.778320,00002.524414,-00001.674805,-00000.322266,-00000.600586,-00000.117188,-00000.092773,-00000.068359
0000000014949,00002.558594,00002.241211,00002.114258,00003.344727,00002.651367,00002.524414,00002.661133,00003.178711,00002.783203,00002.524414,-00001.674805,-00000.332031,-00000.605469,-00000.117188,-00000.092773,-00000.063477
0000000014950,00002.563477,00002.241211,00002.119141,00003.339844,00002.656250,00002.534180,00002.661133,00003.183594,00002.778320,00002.524414,-00001.650391,-00000.327148,-00000.595703,-00000.102539,-00000.078125,-00000.063477
0000000014951,00002.563477,00002.241211,00002.124023,00003.339844,00002.656250,00002.539063,00002.661133,00003.188477,00002.778320,00002.524414,-00001.645508,-00000.327148,-00000.590820,-00000.092773,-00000.058594,-00000.078125
0000000014952,00002.563477,00002.241211,00002.114258,00003.339844,00002.651367,00002.539063,00002.656250,00003.183594,00002.773438,00002.519531,-00001.660156,-00000.332031,-00000.581055,-00000.087891,-00000.048828,-00000.083008
0000000014953,00002.568359,00002.241211,00002.119141,00003.344727,00002.656250,00002.539063,00002.661133,00003.193359,00002.778320,00002.524414,-00001.684570,-00000.336914,-00000.581055,-00000.097656,-00000.048828,-00000.078125
0000000014954,00002.568359,00002.241211,00002.119141,00003.344727,00002.656250,00002.543945,00002.661133,00003.193359,00002.778320,00002.524414,-00001.689453,-00000.341797,-00000.581055,-00000.102539,-00000.058594,-00000.078125
0000000014955,00002.568359,00002.246094,00002.114258,00003.349609,00002.651367,00002.543945,00002.661133,00003.188477,00002.783203,00002.519531,-00001.679688,-00000.336914,-00000.585938,-00000.107422,-00000.068359,-00000.078125
0000000014956,00002.563477,00002.246094,00002.119141,00003.339844,00002.651367,00002.534180,00002.661133,00003.183594,00002.778320,00002.524414,-00001.660156,-00000.332031,-00000.581055,-00000.102539,-00000.078125,-00000.078125
0000000014957,00002.563477,00002.250977,00002.119141,00003.349609,00002.651367,00002.543945,00002.661133,00003.183594,00002.778320,00002.524414,-00001.625977,-00000.317383,-00000.581055,-00000.092773,-00000.073242,-00000.083008
0000000014958,00002.563477,00002.246094,00002.124023,00003.344727,00002.656250,00002.548828,00002.666016,00003.193359,00002.778320,00002.524414,-00001.601563,-00000.307617,-00000.581055,-00000.087891,-00000.068359,-00000.083008
0000000014959,00002.568359,00002.246094,00002.128906,00003.344727,00002.651367,00002.548828,00002.656250,00003.188477,00002.778320,00002.519531,-00001.567383,-00000.307617,-00000.576172,-00000.087891,-00000.063477,-00000.078125
0000000014960,00002.563477,00002.250977,00002.128906,00003.344727,00002.656250,00002.553711,00002.666016,00003.188477,00002.783203,00002.519531,-00001.533203,-00000.302734,-00000.571289,-00000.087891,-00000.078125,-00000.078125
0000000014961,00002.573242,00002.246094,00002.158203,00003.344727,00002.651367,00002.563477,00002.666016,00003.188477,00002.788086,00002.524414,-00001.474609,-00000.292969,-00000.566406,-00000.087891,-00000.083008,-00000.083008
0000000014962,00002.573242,00002.241211,00002.172852,00003.339844,00002.651367,00002.558594,00002.656250,00003.188477,00002.778320,00002.524414,-00001.391602,-00000.283203,-00000.556641,-00000.083008,-00000.092773,-00000.083008
0000000014963,00002.583008,00002.250977,00002.172852,00003.349609,00002.651367,00002.578125,00002.666016,00003.198242,00002.792969,00002.534180,-00001.303711,-00000.268555,-00000.551758,-00000.083008,-00000.078125,-00000.083008
0000000014964,00002.573242,00002.250977,00002.167969,00003.344727,00002.651367,00002.573242,00002.661133,00003.193359,00002.797852,00002.524414,-00001.308594,-00000.288086,-00000.556641,-00000.087891,-00000.058594,-00000.083008
0000000014965,00002.578125,00002.250977,00002.163086,00003.339844,00002.656250,00002.568359,00002.666016,00003.193359,00002.788086,00002.524414,-00001.362305,-00000.322266,-00000.556641,-00000.102539,-00000.053711,-00000.078125
0000000014966,00002.568359,00002.250977,00002.128906,00003.349609,00002.651367,00002.568359,00002.666016,00003.188477,00002.792969,00002.524414,-00001.425781,-00000.346680,-00000.541992,-00000.097656,-00000.083008,-00000.083008
0000000014967,00002.578125,00002.250977,00002.128906,00003.349609,00002.656250,00002.573242,00002.666016,00003.193359,00002.792969,00002.524414,-00001.479492,-00000.366211,-00000.541992,-00000.102539,-00000.122070,-00000.087891
0000000014968,00002.573242,00002.250977,00002.124023,00003.344727,00002.651367,00002.573242,00002.666016,00003.193359,00002.792969,00002.524414,-00001.503906,-00000.371094,-00000.551758,-00000.107422,-00000.136719,-00000.092773
0000000014969,00002.573242,00002.246094,00002.124023,00003.339844,00002.656250,00002.563477,00002.661133,00003.188477,00002.783203,00002.524414,-00001.547852,-00000.375977,-00000.566406,-00000.112305,-00000.126953,-00000.092773
0000000014970,00002.568359,00002.250977,00002.114258,00003.349609,00002.656250,00002.563477,00002.666016,00003.188477,00002.788086,00002.524414,-00001.601563,-00000.371094,-00000.571289,-00000.112305,-00000.117188,-00000.083008
0000000014971,00002.568359,00002.246094,00002.114258,00003.359375,00002.656250,00002.558594,00002.666016,00003.188477,00002.783203,00002.524414,-00001.669922,-00000.371094,-00000.571289,-00000.112305,-00000.122070,-00000.087891
0000000014972,00002.573242,00002.241211,00002.109375,00003.359375,00002.651367,00002.563477,00002.661133,00003.188477,00002.783203,00002.524414,-00001.718750,-00000.371094,-00000.566406,-00000.107422,-00000.136719,-00000.092773
0000000014973,00002.573242,00002.236328,00002.104492,00003.364258,00002.651367,00002.563477,00002.661133,00003.188477,00002.783203,00002.514648,-00001.762695,-00000.371094,-00000.566406,-00000.112305,-00000.126953,-00000.087891
0000000014974,00002.568359,00002.236328,00002.099609,00003.359375,00002.646484,00002.548828,00002.661133,00003.178711,00002.778320,00002.504883,-00001.796875,-00000.375977,-00000.576172,-00000.117188,-00000.126953,-00000.087891
0000000014975,00002.568359,00002.226563,00002.104492,00003.359375,00002.646484,00002.548828,00002.651367,00003.183594,00002.773438,00002.509766,-00001.821289,-00000.375977,-00000.581055,-00000.122070,-00000.122070,-00000.083008
0000000014976,00002.568359,00002.226563,00002.109375,00003.364258,00002.656250,00002.548828,00002.661133,00003.183594,00002.773438,00002.514648,-00001.850586,-00000.375977,-00000.585938,-00000.117188,-00000.136719,-00000.083008
0000000014977,00002.563477,00002.221680,00002.104492,00003.364258,00002.651367,00002.543945,00002.651367,00003.178711,00002.768555,00002.509766,-00001.855469,-00000.371094,-00000.581055,-00000.107422,-00000.141602,-00000.083008
0000000014978,00002.563477,00002.221680,00002.104492,00003.369141,00002.656250,00002.548828,00002.661133,00003.178711,00002.778320,00002.509766,-00001.855469,-00000.361328,-00000.571289,-00000.097656,-00000.131836,-00000.073242
0000000014979,00002.563477,00002.216797,00002.104492,00003.369141,00002.656250,00002.548828,00002.661133,00003.183594,00002.778320,00002.514648,-00001.870117,-00000.361328,-00000.566406,-00000.102539,-00000.122070,-00000.073242
0000000014980,00002.553711,00002.211914,00002.099609,00003.374023,00002.646484,00002.543945,00002.656250,00003.178711,00002.773438,00002.509766,-00001.899414,-00000.375977,-00000.561523,-00000.102539,-00000.112305,-00000.078125
0000000014981,00002.558594,00002.207031,00002.104492,00003.374023,00002.651367,00002.539063,00002.651367,00003.178711,00002.763672,00002.509766,-00001.928711,-00000.385742,-00000.556641,-00000.102539,-00000.107422,-00000.083008
0000000014982,00002.553711,00002.207031,00002.099609,00003.398438,00002.646484,00002.534180,00002.651367,00003.173828,00002.768555,00002.509766,-00001.933594,-00000.385742,-00000.551758,-00000.097656,-00000.102539,-00000.073242
0000000014983,00002.553711,00002.207031,00002.104492,00003.378906,00002.646484,00002.543945,00002.651367,00003.178711,00002.773438,00002.514648,-00001.914063,-00000.375977,-00000.546875,-00000.097656,-00000.092773,-00000.068359
0000000014984,00002.558594,00002.207031,00002.109375,00003.398438,00002.651367,00002.543945,00002.651367,00003.178711,00002.773438,00002.519531,-00001.884766,-00000.366211,-00000.541992,-00000.092773,-00000.078125,-00000.068359
0000000014985,00002.558594,00002.207031,00002.109375,00003.388672,00002.651367,00002.534180,00002.656250,00003.178711,00002.773438,00002.519531,-00001.894531,-00000.366211,-00000.541992,-00000.092773,-00000.063477,-00000.068359
0000000014986,00002.563477,00002.197266,00002.104492,00003.393555,00002.651367,00002.524414,00002.651367,00003.183594,00002.773438,00002.514648,-00001.909180,-00000.366211,-00000.537109,-00000.092773,-00000.063477,-00000.063477
0000000014987,00002.558594,00002.192383,00002.104492,00003.369141,00002.651367,00002.519531,00002.646484,00003.168945,00002.749023,00002.514648,-00001.914063,-00000.366211,-00000.546875,-00000.097656,-00000.063477,-00000.063477
0000000014988,00002.553711,00002.192383,00002.104492,00003.369141,00002.651367,00002.519531,00002.656250,00003.168945,00002.753906,00002.519531,-00001.909180,-00000.366211,-00000.551758,-00000.102539,-00000.073242,-00000.063477
0000000014989,00002.558594,00002.197266,00002.104492,00003.374023,00002.651367,00002.524414,00002.651367,00003.173828,00002.749023,00002.519531,-00001.904297,-00000.366211,-00000.551758,-00000.102539,-00000.078125,-00000.063477
0000000014990,00002.553711,00002.187500,00002.099609,00003.374023,00002.646484,00002.519531,00002.651367,00003.168945,00002.749023,00002.519531,-00001.918945,-00000.366211,-00000.541992,-00000.097656,-00000.068359,-00000.068359
0000000014991,00002.548828,00002.192383,00002.099609,00003.398438,00002.651367,00002.519531,00002.656250,00003.164063,00002.744141,00002.514648,-00001.938477,-00000.375977,-00000.537109,-00000.097656,-00000.053711,-00000.063477
0000000014992,00002.548828,00002.192383,00002.094727,00003.393555,00002.651367,00002.514648,00002.651367,00003.164063,00002.739258,00002.514648,-00001.977539,-00000.390625,-00000.546875,-00000.102539,-00000.053711,-00000.053711
0000000014993,00002.548828,00002.177734,00002.094727,00003.403320,00002.651367,00002.519531,00002.651367,00003.173828,00002.739258,00002.514648,-00002.001953,-00000.395508,-00000.551758,-00000.112305,-00000.068359,-00000.048828
0000000014994,00002.548828,00002.167969,00002.094727,00003.403320,00002.651367,00002.519531,00002.646484,00003.173828,00002.734375,00002.519531,-00002.011719,-00000.400391,-00000.541992,-00000.112305,-00000.083008,-00000.053711
0000000014995,00002.539063,00002.167969,00002.084961,00003.398438,00002.646484,00002.509766,00002.651367,00003.159180,00002.734375,00002.519531,-00002.006836,-00000.400391,-00000.537109,-00000.107422,-00000.083008,-00000.063477
0000000014996,00002.543945,00002.172852,00002.089844,00003.403320,00002.651367,00002.514648,00002.651367,00003.164063,00002.734375,00002.514648,-00001.992188,-00000.395508,-00000.537109,-00000.102539,-00000.078125,-00000.063477
0000000014997,00002.543945,00002.163086,00002.089844,00003.398438,00002.646484,00002.514648,00002.641602,00003.164063,00002.724609,00002.514648,-00001.992188,-00000.395508,-00000.532227,-00000.102539,-00000.063477,-00000.063477
0000000014998,00002.543945,00002.158203,00002.089844,00003.398438,00002.641602,00002.514648,00002.641602,00003.164063,00002.729492,00002.514648,-00001.997070,-00000.395508,-00000.532227,-00000.107422,-00000.058594,-00000.063477
0000000014999,00002.539063,00002.163086,00002.084961,00003.398438,00002.646484,00002.509766,00002.646484,00003.159180,00002.729492,00002.509766,-00001.997070,-00000.395508,-00000.527344,-00000.102539,-00000.058594,-00000.058594
0000000015000,00002.548828,00002.158203,00002.089844,00003.403320,00002.651367,00002.514648,00002.646484,00003.168945,00002.729492,00002.519531,-00001.997070,-00000.395508,-00000.527344,-00000.097656,-00000.058594,-00000.063477
0000000015001,00002.543945,00002.158203,00002.089844,00003.398438,00002.646484,00002.514648,00002.641602,00003.164063,00002.729492,00002.514648,-00001.992188,-00000.395508,-00000.517578,-00000.092773,-00000.053711,-00000.068359
0000000015002,00002.543945,00002.163086,00002.094727,00003.398438,00002.656250,00002.514648,00002.651367,00003.168945,00002.734375,00002.519531,-00001.977539,-00000.395508,-00000.517578,-00000.097656,-00000.053711,-00000.063477
0000000015003,00002.543945,00002.163086,00002.089844,00003.393555,00002.651367,00002.509766,00002.646484,00003.164063,00002.729492,00002.514648,-00001.958008,-00000.390625,-00000.517578,-00000.097656,-00000.053711,-00000.063477
0000000015004,00002.543945,00002.172852,00002.084961,00003.403320,00002.646484,00002.514648,00002.646484,00003.164063,00002.739258,00002.519531,-00001.948242,-00000.390625,-00000.517578,-00000.097656,-00000.053711,-00000.063477
0000000015005,00002.539063,00002.167969,00002.089844,00003.403320,00002.651367,00002.514648,00002.651367,00003.164063,00002.729492,00002.519531,-00001.958008,-00000.390625,-00000.517578,-00000.092773,-00000.048828,-00000.063477
0000000015006,00002.539063,00002.167969,00002.084961,00003.403320,00002.651367,00002.514648,00002.651367,00003.164063,00002.739258,00002.519531,-00001.962891,-00000.395508,-00000.507813,-00000.092773,-00000.048828,-00000.063477
0000000015007,00002.539063,00002.167969,00002.089844,00003.398438,00002.651367,00002.514648,00002.646484,00003.164063,00002.729492,00002.519531,-00001.958008,-00000.395508,-00000.512695,-00000.092773,-00000.043945,-00000.063477
0000000015008,00002.543945,00002.167969,00002.089844,00003.408203,00002.651367,00002.524414,00002.651367,00003.164063,00002.739258,00002.519531,-00001.938477,-00000.390625,-00000.517578,-00000.097656,-00000.048828,-00000.063477
0000000015009,00002.543945,00002.172852,00002.094727,00003.398438,00002.656250,00002.524414,00002.651367,00003.164063,00002.739258,00002.519531,-00001.928711,-00000.390625,-00000.522461,-00000.097656,-00000.053711,-00000.068359
0000000015010,00002.543945,00002.167969,00002.094727,00003.403320,00002.656250,00002.529297,00002.646484,00003.164063,00002.739258,00002.524414,-00001.923828,-00000.395508,-00000.522461,-00000.097656,-00000.048828,-00000.073242
0000000015011,00002.543945,00002.167969,00002.089844,00003.403320,00002.651367,00002.534180,00002.646484,00003.168945,00002.749023,00002.519531,-00001.928711,-00000.405273,-00000.522461,-00000.097656,-00000.048828,-00000.078125
0000000015012,00002.539063,00002.177734,00002.089844,00003.408203,00002.651367,00002.529297,00002.651367,00003.164063,00002.749023,00002.519531,-00001.943359,-00000.410156,-00000.522461,-00000.097656,-00000.048828,-00000.078125
0000000015013,00002.539063,00002.167969,00002.089844,00003.398438,00002.656250,00002.524414,00002.656250,00003.168945,00002.744141,00002.519531,-00001.948242,-00000.415039,-00000.522461,-00000.107422,-00000.058594,-00000.078125
0000000015014,00002.548828,00002.172852,00002.094727,00003.403320,00002.656250,00002.524414,00002.651367,00003.173828,00002.739258,00002.519531,-00001.958008,-00000.419922,-00000.522461,-00000.112305,-00000.068359,-00000.073242
0000000015015,00002.543945,00002.187500,00002.089844,00003.398438,00002.656250,00002.519531,00002.651367,00003.159180,00002.734375,00002.519531,-00001.953125,-00000.424805,-00000.517578,-00000.107422,-00000.068359,-00000.073242
0000000015016,00002.539063,00002.192383,00002.089844,00003.398438,00002.661133,00002.529297,00002.656250,00003.164063,00002.739258,00002.519531,-00001.962891,-00000.419922,-00000.507813,-00000.102539,-00000.063477,-00000.078125
0000000015017,00002.543945,00002.187500,00002.094727,00003.398438,00002.656250,00002.529297,00002.646484,00003.168945,00002.739258,00002.519531,-00001.972656,-00000.419922,-00000.507813,-00000.102539,-00000.053711,-00000.073242
0000000015018,00002.539063,00002.187500,00002.089844,00003.403320,00002.656250,00002.524414,00002.651367,00003.164063,00002.734375,00002.514648,-00001.982422,-00000.429688,-00000.502930,-00000.102539,-00000.058594,-00000.078125
0000000015019,00002.543945,00002.187500,00002.089844,00003.398438,00002.656250,00002.529297,00002.651367,00003.164063,00002.734375,00002.514648,-00001.972656,-00000.429688,-00000.517578,-00000.092773,-00000.048828,-00000.078125
0000000015020,00002.548828,00002.187500,00002.094727,00003.398438,00002.666016,00002.534180,00002.651367,00003.168945,00002.739258,00002.519531,-00001.992188,-00000.439453,-00000.512695,-00000.087891,-00000.034180,-00000.078125
0000000015021,00002.543945,00002.187500,00002.094727,00003.393555,00002.670898,00002.529297,00002.651367,00003.164063,00002.739258,00002.519531,-00002.001953,-00000.439453,-00000.517578,-00000.087891,-00000.034180,-00000.083008
0000000015022,00002.548828,00002.163086,00002.094727,00003.403320,00002.666016,00002.534180,00002.651367,00003.168945,00002.734375,00002.519531,-00002.036133,-00000.454102,-00000.522461,-00000.092773,-00000.043945,-00000.083008
0000000015023,00002.548828,00002.167969,00002.094727,00003.413086,00002.670898,00002.529297,00002.651367,00003.164063,00002.734375,00002.519531,-00002.060547,-00000.454102,-00000.522461,-00000.083008,-00000.029297,-00000.073242
0000000015024,00002.548828,00002.158203,00002.089844,00003.413086,00002.670898,00002.529297,00002.646484,00003.168945,00002.729492,00002.519531,-00002.075195,-00000.463867,-00000.527344,-00000.087891,-00000.024414,-00000.063477
0000000015025,00002.543945,00002.163086,00002.089844,00003.417969,00002.670898,00002.529297,00002.656250,00003.168945,00002.734375,00002.519531,-00002.089844,-00000.478516,-00000.537109,-00000.092773,-00000.029297,-00000.063477
0000000015026,00002.543945,00002.163086,00002.084961,00003.422852,00002.670898,00002.529297,00002.651367,00003.164063,00002.734375,00002.519531,-00002.104492,-00000.498047,-00000.527344,-00000.087891,-00000.039063,-00000.068359
0000000015027,00002.548828,00002.158203,00002.084961,00003.427734,00002.666016,00002.539063,00002.651367,00003.168945,00002.729492,00002.519531,-00002.099609,-00000.498047,-00000.522461,-00000.083008,-00000.024414,-00000.073242
0000000015028,00002.548828,00002.158203,00002.089844,00003.413086,00002.670898,00002.534180,00002.651367,00003.164063,00002.729492,00002.519531,-00002.055664,-00000.493164,-00000.522461,-00000.078125,-00000.014648,-00000.068359
0000000015029,00002.553711,00002.167969,00002.094727,00003.403320,00002.675781,00002.539063,00002.646484,00003.168945,00002.729492,00002.524414,-00001.992188,-00000.468750,-00000.512695,-00000.073242,-00000.014648,-00000.058594
0000000015030,00002.548828,00002.163086,00002.089844,00003.374023,00002.675781,00002.543945,00002.651367,00003.164063,00002.734375,00002.519531,-00001.948242,-00000.449219,-00000.502930,-00000.063477,-00000.004883,-00000.053711
0000000015031,00002.548828,00002.158203,00002.089844,00003.374023,00002.675781,00002.543945,00002.651367,00003.168945,00002.729492,00002.519531,-00001.943359,-00000.444336,-00000.493164,-00000.063477,-00000.004883,-00000.048828
0000000015032,00002.548828,00002.158203,00002.089844,00003.369141,00002.675781,00002.539063,00002.651367,00003.164063,00002.724609,00002.514648,-00001.933594,-00000.429688,-00000.478516,-00000.068359,-00000.024414,-00000.039063
0000000015033,00002.548828,00002.153320,00002.089844,00003.369141,00002.675781,00002.539063,00002.656250,00003.168945,00002.719727,00002.519531,-00001.943359,-00000.434570,-00000.478516,-00000.068359,-00000.029297,-00000.034180
0000000015034,00002.548828,00002.153320,00002.080078,00003.378906,00002.670898,00002.539063,00002.651367,00003.164063,00002.724609,00002.514648,-00001.958008,-00000.444336,-00000.478516,-00000.063477,-00000.029297,-00000.034180
0000000015035,00002.543945,00002.148438,00002.080078,00003.374023,00002.670898,00002.539063,00002.651367,00003.159180,00002.719727,00002.514648,-00001.958008,-00000.444336,-00000.478516,-00000.068359,-00000.034180,-00000.043945
0000000015036,00002.548828,00002.148438,00002.084961,00003.374023,00002.666016,00002.543945,00002.651367,00003.173828,00002.719727,00002.514648,-00001.923828,-00000.439453,-00000.483398,-00000.083008,-00000.043945,-00000.053711
0000000015037,00002.548828,00002.148438,00002.080078,00003.369141,00002.666016,00002.539063,00002.646484,00003.168945,00002.714844,00002.509766,-00001.928711,-00000.444336,-00000.478516,-00000.078125,-00000.034180,-00000.048828
0000000015038,00002.543945,00002.148438,00002.080078,00003.364258,00002.670898,00002.534180,00002.651367,00003.159180,00002.719727,00002.509766,-00001.943359,-00000.458984,-00000.488281,-00000.083008,-00000.034180,-00000.053711
0000000015039,00002.548828,00002.148438,00002.084961,00003.364258,00002.680664,00002.529297,00002.651367,00003.168945,00002.714844,00002.519531,-00001.953125,-00000.473633,-00000.493164,-00000.102539,-00000.058594,-00000.053711
0000000015040,00002.548828,00002.158203,00002.084961,00003.359375,00002.680664,00002.534180,00002.656250,00003.168945,00002.719727,00002.514648,-00001.933594,-00000.473633,-00000.498047,-00000.102539,-00000.063477,-00000.058594
0000000015041,00002.548828,00002.163086,00002.080078,00003.364258,00002.680664,00002.539063,00002.656250,00003.164063,00002.719727,00002.514648,-00001.928711,-00000.488281,-00000.498047,-00000.097656,-00000.048828,-00000.068359
0000000015042,00002.548828,00002.172852,00002.080078,00003.364258,00002.680664,00002.539063,00002.651367,00003.164063,00002.719727,00002.509766,-00001.928711,-00000.493164,-00000.507813,-00000.102539,-00000.048828,-00000.068359
0000000015043,00002.553711,00002.182617,00002.084961,00003.364258,00002.675781,00002.543945,00002.651367,00003.168945,00002.714844,00002.514648,-00001.909180,-00000.498047,-00000.507813,-00000.102539,-00000.053711,-00000.063477
0000000015044,00002.553711,00002.182617,00002.084961,00003.364258,00002.675781,00002.548828,00002.646484,00003.168945,00002.714844,00002.519531,-00001.899414,-00000.493164,-00000.502930,-00000.097656,-00000.048828,-00000.063477
0000000015045,00002.548828,00002.182617,00002.084961,00003.359375,00002.680664,00002.548828,00002.656250,00003.168945,00002.714844,00002.519531,-00001.894531,-00000.502930,-00000.522461,-00000.102539,-00000.048828,-00000.068359
0000000015046,00002.548828,00002.177734,00002.084961,00003.364258,00002.680664,00002.548828,00002.651367,00003.173828,00002.714844,00002.519531,-00001.889648,-00000.502930,-00000.522461,-00000.102539,-00000.058594,-00000.073242
0000000015047,00002.553711,00002.177734,00002.084961,00003.359375,00002.675781,00002.548828,00002.646484,00003.168945,00002.714844,00002.514648,-00001.879883,-00000.502930,-00000.512695,-00000.087891,-00000.048828,-00000.078125
0000000015048,00002.553711,00002.187500,00002.084961,00003.359375,00002.680664,00002.553711,00002.656250,00003.168945,00002.719727,00002.514648,-00001.870117,-00000.498047,-00000.512695,-00000.092773,-00000.048828,-00000.083008
0000000015049,00002.553711,00002.192383,00002.089844,00003.359375,00002.680664,00002.553711,00002.661133,00003.164063,00002.719727,00002.514648,-00001.850586,-00000.498047,-00000.522461,-00000.102539,-00000.063477,-00000.078125
0000000015050,00002.553711,00002.197266,00002.094727,00003.359375,00002.685547,00002.558594,00002.661133,00003.168945,00002.719727,00002.519531,-00001.835938,-00000.493164,-00000.517578,-00000.102539,-00000.063477,-00000.073242
0000000015051,00002.558594,00002.192383,00002.099609,00003.359375,00002.675781,00002.568359,00002.656250,00003.168945,00002.719727,00002.519531,-00001.811523,-00000.493164,-00000.512695,-00000.087891,-00000.048828,-00000.063477
0000000015052,00002.553711,00002.207031,00002.094727,00003.359375,00002.680664,00002.563477,00002.661133,00003.164063,00002.724609,00002.519531,-00001.796875,-00000.498047,-00000.517578,-00000.092773,-00000.043945,-00000.063477
0000000015053,00002.553711,00002.211914,00002.099609,00003.354492,00002.680664,00002.563477,00002.656250,00003.168945,00002.724609,00002.529297,-00001.782227,-00000.498047,-00000.517578,-00000.092773,-00000.063477,-00000.083008
0000000015054,00002.558594,00002.216797,00002.099609,00003.359375,00002.680664,00002.568359,00002.656250,00003.173828,00002.724609,00002.524414,-00001.782227,-00000.498047,-00000.512695,-00000.092773,-00000.063477,-00000.087891
0000000015055,00002.553711,00002.221680,00002.094727,00003.359375,00002.675781,00002.568359,00002.661133,00003.168945,00002.729492,00002.524414,-00001.787109,-00000.507813,-00000.517578,-00000.097656,-00000.058594,-00000.078125
0000000015056,00002.558594,00002.221680,00002.099609,00003.359375,00002.680664,00002.573242,00002.656250,00003.178711,00002.729492,00002.529297,-00001.777344,-00000.507813,-00000.522461,-00000.102539,-00000.068359,-00000.073242
0000000015057,00002.558594,00002.226563,00002.099609,00003.354492,00002.680664,00002.568359,00002.661133,00003.173828,00002.724609,00002.529297,-00001.757813,-00000.493164,-00000.507813,-00000.097656,-00000.068359,-00000.073242
0000000015058,00002.558594,00002.226563,00002.099609,00003.359375,00002.680664,00002.573242,00002.661133,00003.178711,00002.729492,00002.524414,-00001.752930,-00000.493164,-00000.502930,-00000.092773,-00000.058594,-00000.078125
0000000015059,00002.553711,00002.231445,00002.099609,00003.354492,00002.685547,00002.568359,00002.661133,00003.173828,00002.734375,00002.524414,-00001.733398,-00000.502930,-00000.512695,-00000.102539,-00000.053711,-00000.078125
0000000015060,00002.558594,00002.231445,00002.104492,00003.359375,00002.680664,00002.573242,00002.661133,00003.183594,00002.739258,00002.534180,-00001.723633,-00000.498047,-00000.517578,-00000.102539,-00000.063477,-00000.078125
0000000015061,00002.553711,00002.236328,00002.104492,00003.354492,00002.675781,00002.573242,00002.661133,00003.173828,00002.744141,00002.534180,-00001.713867,-00000.498047,-00000.507813,-00000.097656,-00000.063477,-00000.078125
0000000015062,00002.558594,00002.241211,00002.138672,00003.354492,00002.680664,00002.573242,00002.661133,00003.183594,00002.753906,00002.534180,-00001.679688,-00000.493164,-00000.512695,-00000.092773,-00000.048828,-00000.073242
0000000015063,00002.553711,00002.241211,00002.138672,00003.349609,00002.685547,00002.573242,00002.666016,00003.178711,00002.758789,00002.534180,-00001.674805,-00000.493164,-00000.517578,-00000.102539,-00000.058594,-00000.073242
0000000015064,00002.558594,00002.241211,00002.143555,00003.349609,00002.680664,00002.573242,00002.661133,00003.188477,00002.753906,00002.539063,-00001.684570,-00000.502930,-00000.517578,-00000.102539,-00000.078125,-00000.073242
0000000015065,00002.553711,00002.241211,00002.138672,00003.354492,00002.685547,00002.573242,00002.666016,00003.178711,00002.753906,00002.539063,-00001.699219,-00000.498047,-00000.493164,-00000.092773,-00000.073242,-00000.078125
0000000015066,00002.558594,00002.241211,00002.128906,00003.354492,00002.685547,00002.573242,00002.661133,00003.183594,00002.753906,00002.534180,-00001.713867,-00000.498047,-00000.498047,-00000.092773,-00000.058594,-00000.083008
0000000015067,00002.553711,00002.236328,00002.099609,00003.359375,00002.680664,00002.568359,00002.661133,00003.178711,00002.758789,00002.529297,-00001.733398,-00000.493164,-00000.507813,-00000.097656,-00000.058594,-00000.073242
0000000015068,00002.553711,00002.236328,00002.099609,00003.354492,00002.680664,00002.563477,00002.661133,00003.178711,00002.744141,00002.524414,-00001.738281,-00000.488281,-00000.512695,-00000.097656,-00000.063477,-00000.068359
0000000015069,00002.553711,00002.226563,00002.099609,00003.354492,00002.680664,00002.568359,00002.661133,00003.183594,00002.739258,00002.529297,-00001.738281,-00000.483398,-00000.512695,-00000.092773,-00000.058594,-00000.073242
0000000015070,00002.553711,00002.226563,00002.099609,00003.354492,00002.680664,00002.568359,00002.656250,00003.178711,00002.734375,00002.524414,-00001.723633,-00000.493164,-00000.517578,-00000.102539,-00000.058594,-00000.073242
0000000015071,00002.548828,00002.231445,00002.099609,00003.349609,00002.680664,00002.563477,00002.661133,00003.178711,00002.734375,00002.529297,-00001.718750,-00000.498047,-00000.527344,-00000.102539,-00000.063477,-00000.073242
0000000015072,00002.548828,00002.226563,00002.099609,00003.349609,00002.680664,00002.563477,00002.656250,00003.173828,00002.729492,00002.524414,-00001.718750,-00000.498047,-00000.517578,-00000.092773,-00000.053711,-00000.073242
0000000015073,00002.553711,00002.231445,00002.099609,00003.354492,00002.685547,00002.563477,00002.661133,00003.178711,00002.734375,00002.529297,-00001.718750,-00000.507813,-00000.522461,-00000.097656,-00000.063477,-00000.078125
0000000015074,00002.548828,00002.231445,00002.094727,00003.359375,00002.675781,00002.563477,00002.661133,00003.178711,00002.734375,00002.529297,-00001.728516,-00000.512695,-00000.537109,-00000.097656,-00000.068359,-00000.073242
0000000015075,00002.548828,00002.231445,00002.094727,00003.359375,00002.675781,00002.558594,00002.656250,00003.173828,00002.734375,00002.524414,-00001.723633,-00000.532227,-00000.546875,-00000.092773,-00000.058594,-00000.073242
0000000015076,00002.553711,00002.226563,00002.099609,00003.364258,00002.675781,00002.568359,00002.656250,00003.183594,00002.734375,00002.529297,-00001.728516,-00000.546875,-00000.561523,-00000.092773,-00000.058594,-00000.073242
0000000015077,00002.543945,00002.231445,00002.094727,00003.359375,00002.670898,00002.558594,00002.656250,00003.178711,00002.734375,00002.524414,-00001.713867,-00000.556641,-00000.571289,-00000.102539,-00000.068359,-00000.068359
0000000015078,00002.553711,00002.231445,00002.099609,00003.354492,00002.670898,00002.563477,00002.656250,00003.188477,00002.729492,00002.529297,-00001.694336,-00000.561523,-00000.561523,-00000.097656,-00000.068359,-00000.073242
0000000015079,00002.548828,00002.231445,00002.094727,00003.354492,00002.670898,00002.558594,00002.656250,00003.183594,00002.749023,00002.524414,-00001.708984,-00000.571289,-00000.551758,-00000.087891,-00000.048828,-00000.068359
0000000015080,00002.548828,00002.226563,00002.099609,00003.349609,00002.675781,00002.558594,00002.656250,00003.183594,00002.734375,00002.524414,-00001.718750,-00000.581055,-00000.556641,-00000.092773,-00000.053711,-00000.068359
0000000015081,00002.548828,00002.241211,00002.099609,00003.359375,00002.675781,00002.563477,00002.661133,00003.183594,00002.739258,00002.529297,-00001.708984,-00000.585938,-00000.571289,-00000.092773,-00000.073242,-00000.058594
0000000015082,00002.553711,00002.236328,00002.104492,00003.354492,00002.675781,00002.568359,00002.656250,00003.193359,00002.734375,00002.539063,-00001.699219,-00000.581055,-00000.576172,-00000.083008,-00000.058594,-00000.053711
0000000015083,00002.553711,00002.236328,00002.104492,00003.349609,00002.675781,00002.563477,00002.656250,00003.188477,00002.744141,00002.529297,-00001.708984,-00000.581055,-00000.581055,-00000.083008,-00000.048828,-00000.058594
0000000015084,00002.548828,00002.241211,00002.094727,00003.354492,00002.675781,00002.558594,00002.656250,00003.183594,00002.753906,00002.529297,-00001.708984,-00000.576172,-00000.590820,-00000.092773,-00000.053711,-00000.058594
0000000015085,00002.553711,00002.241211,00002.099609,00003.359375,00002.675781,00002.563477,00002.661133,00003.183594,00002.749023,00002.543945,-00001.708984,-00000.581055,-00000.585938,-00000.087891,-00000.068359,-00000.068359
0000000015086,00002.558594,00002.246094,00002.109375,00003.354492,00002.675781,00002.568359,00002.656250,00003.193359,00002.763672,00002.553711,-00001.713867,-00000.585938,-00000.581055,-00000.087891,-00000.063477,-00000.068359
0000000015087,00002.553711,00002.246094,00002.138672,00003.359375,00002.675781,00002.563477,00002.661133,00003.183594,00002.768555,00002.548828,-00001.718750,-00000.595703,-00000.590820,-00000.097656,-00000.063477,-00000.068359
0000000015088,00002.558594,00002.246094,00002.172852,00003.354492,00002.675781,00002.573242,00002.661133,00003.193359,00002.773438,00002.558594,-00001.679688,-00000.585938,-00000.585938,-00000.092773,-00000.063477,-00000.063477
0000000015089,00002.553711,00002.250977,00002.172852,00003.349609,00002.680664,00002.568359,00002.666016,00003.188477,00002.773438,00002.563477,-00001.665039,-00000.581055,-00000.581055,-00000.087891,-00000.058594,-00000.063477
0000000015090,00002.558594,00002.265625,00002.167969,00003.354492,00002.675781,00002.573242,00002.661133,00003.188477,00002.773438,00002.553711,-00001.655273,-00000.590820,-00000.590820,-00000.092773,-00000.053711,-00000.063477
0000000015091,00002.558594,00002.270508,00002.172852,00003.349609,00002.680664,00002.568359,00002.670898,00003.193359,00002.778320,00002.558594,-00001.655273,-00000.595703,-00000.595703,-00000.102539,-00000.078125,-00000.063477
0000000015092,00002.563477,00002.270508,00002.172852,00003.349609,00002.680664,00002.568359,00002.661133,00003.193359,00002.768555,00002.563477,-00001.660156,-00000.595703,-00000.590820,-00000.097656,-00000.092773,-00000.068359
0000000015093,00002.563477,00002.270508,00002.177734,00003.349609,00002.685547,00002.568359,00002.666016,00003.198242,00002.768555,00002.563477,-00001.665039,-00000.595703,-00000.585938,-00000.097656,-00000.092773,-00000.073242
0000000015094,00002.563477,00002.265625,00002.172852,00003.344727,00002.685547,00002.568359,00002.661133,00003.193359,00002.768555,00002.558594,-00001.684570,-00000.605469,-00000.585938,-00000.102539,-00000.092773,-00000.068359
0000000015095,00002.553711,00002.270508,00002.167969,00003.344727,00002.680664,00002.563477,00002.666016,00003.188477,00002.773438,00002.558594,-00001.689453,-00000.605469,-00000.581055,-00000.102539,-00000.092773,-00000.063477
0000000015096,00002.563477,00002.270508,00002.172852,00003.349609,00002.680664,00002.573242,00002.661133,00003.193359,00002.768555,00002.558594,-00001.708984,-00000.590820,-00000.571289,-00000.097656,-00000.087891,-00000.068359
0000000015097,00002.558594,00002.270508,00002.167969,00003.354492,00002.680664,00002.568359,00002.666016,00003.188477,00002.773438,00002.553711,-00001.699219,-00000.585938,-00000.571289,-00000.092773,-00000.083008,-00000.068359
0000000015098,00002.558594,00002.270508,00002.167969,00003.349609,00002.680664,00002.568359,00002.666016,00003.188477,00002.778320,00002.558594,-00001.684570,-00000.590820,-00000.585938,-00000.097656,-00000.073242,-00000.068359
0000000015099,00002.563477,00002.270508,00002.177734,00003.354492,00002.685547,00002.573242,00002.666016,00003.193359,00002.773438,00002.563477,-00001.689453,-00000.595703,-00000.585938,-00000.087891,-00000.068359,-00000.068359
0000000015100,00002.558594,00002.270508,00002.172852,00003.354492,00002.680664,00002.573242,00002.661133,00003.193359,00002.773438,00002.558594,-00001.699219,-00000.595703,-00000.566406,-00000.083008,-00000.063477,-00000.068359
0000000015101,00002.563477,00002.265625,00002.172852,00003.349609,00002.680664,00002.568359,00002.661133,00003.193359,00002.773438,00002.558594,-00001.699219,-00000.595703,-00000.566406,-00000.087891,-00000.068359,-00000.063477
0000000015102,00002.558594,00002.270508,00002.167969,00003.354492,00002.680664,00002.568359,00002.666016,00003.188477,00002.778320,00002.558594,-00001.679688,-00000.590820,-00000.561523,-00000.087891,-00000.063477,-00000.058594
0000000015103,00002.558594,00002.270508,00002.172852,00003.349609,00002.690430,00002.568359,00002.670898,00003.193359,00002.773438,00002.563477,-00001.665039,-00000.585938,-00000.556641,-00000.083008,-00000.063477,-00000.058594
0000000015104,00002.558594,00002.260742,00002.167969,00003.349609,00002.680664,00002.568359,00002.661133,00003.188477,00002.773438,00002.548828,-00001.674805,-00000.590820,-00000.551758,-00000.087891,-00000.058594,-00000.058594
0000000015105,00002.563477,00002.260742,00002.167969,00003.349609,00002.680664,00002.568359,00002.661133,00003.193359,00002.773438,00002.553711,-00001.674805,-00000.590820,-00000.556641,-00000.092773,-00000.078125,-00000.058594
0000000015106,00002.558594,00002.260742,00002.167969,00003.349609,00002.680664,00002.568359,00002.666016,00003.188477,00002.773438,00002.553711,-00001.674805,-00000.585938,-00000.551758,-00000.097656,-00000.078125,-00000.063477
0000000015107,00002.558594,00002.260742,00002.167969,00003.349609,00002.680664,00002.568359,00002.666016,00003.188477,00002.773438,00002.548828,-00001.665039,-00000.590820,-00000.541992,-00000.087891,-00000.063477,-00000.063477
0000000015108,00002.558594,00002.260742,00002.167969,00003.349609,00002.680664,00002.568359,00002.661133,00003.193359,00002.773438,00002.548828,-00001.665039,-00000.595703,-00000.551758,-00000.092773,-00000.063477,-00000.063477
0000000015109,00002.553711,00002.255859,00002.167969,00003.344727,00002.680664,00002.563477,00002.666016,00003.188477,00002.768555,00002.553711,-00001.660156,-00000.600586,-00000.561523,-00000.097656,-00000.078125,-00000.068359
0000000015110,00002.553711,00002.260742,00002.167969,00003.349609,00002.685547,00002.568359,00002.666016,00003.193359,00002.773438,00002.558594,-00001.660156,-00000.600586,-00000.561523,-00000.092773,-00000.078125,-00000.073242
0000000015111,00002.558594,00002.260742,00002.172852,00003.349609,00002.680664,00002.568359,00002.661133,00003.193359,00002.768555,00002.548828,-00001.655273,-00000.610352,-00000.576172,-00000.087891,-00000.058594,-00000.068359
0000000015112,00002.553711,00002.255859,00002.167969,00003.344727,00002.675781,00002.563477,00002.661133,00003.193359,00002.768555,00002.548828,-00001.655273,-00000.615234,-00000.581055,-00000.087891,-00000.063477,-00000.063477
0000000015113,00002.553711,00002.270508,00002.167969,00003.349609,00002.680664,00002.563477,00002.666016,00003.188477,00002.773438,00002.553711,-00001.655273,-00000.620117,-00000.576172,-00000.092773,-00000.083008,-00000.068359
0000000015114,00002.563477,00002.265625,00002.172852,00003.354492,00002.680664,00002.568359,00002.666016,00003.193359,00002.773438,00002.558594,-00001.645508,-00000.620117,-00000.566406,-00000.087891,-00000.073242,-00000.068359
0000000015115,00002.558594,00002.270508,00002.167969,00003.354492,00002.680664,00002.568359,00002.666016,00003.188477,00002.773438,00002.548828,-00001.640625,-00000.629883,-00000.571289,-00000.087891,-00000.063477,-00000.063477
0000000015116,00002.553711,00002.270508,00002.172852,00003.349609,00002.680664,00002.568359,00002.670898,00003.188477,00002.773438,00002.553711,-00001.621094,-00000.639648,-00000.581055,-00000.092773,-00000.068359,-00000.063477
0000000015117,00002.553711,00002.270508,00002.167969,00003.354492,00002.680664,00002.568359,00002.666016,00003.188477,00002.773438,00002.553711,-00001.616211,-00000.639648,-00000.576172,-00000.092773,-00000.073242,-00000.068359
0000000015118,00002.553711,00002.265625,00002.167969,00003.344727,00002.680664,00002.563477,00002.670898,00003.188477,00002.773438,00002.553711,-00001.625977,-00000.644531,-00000.566406,-00000.087891,-00000.073242,-00000.068359
0000000015119,00002.553711,00002.270508,00002.163086,00003.349609,00002.685547,00002.563477,00002.675781,00003.183594,00002.773438,00002.553711,-00001.635742,-00000.649414,-00000.566406,-00000.097656,-00000.073242,-00000.063477
0000000015120,00002.563477,00002.265625,00002.167969,00003.354492,00002.680664,00002.568359,00002.666016,00003.193359,00002.768555,00002.558594,-00001.630859,-00000.644531,-00000.571289,-00000.102539,-00000.083008,-00000.063477
0000000015121,00002.558594,00002.265625,00002.167969,00003.349609,00002.685547,00002.568359,00002.670898,00003.193359,00002.768555,00002.553711,-00001.640625,-00000.644531,-00000.581055,-00000.097656,-00000.083008,-00000.068359
0000000015122,00002.558594,00002.265625,00002.167969,00003.354492,00002.680664,00002.573242,00002.666016,00003.193359,00002.773438,00002.553711,-00001.655273,-00000.644531,-00000.581055,-00000.097656,-00000.083008,-00000.068359
0000000015123,00002.563477,00002.265625,00002.172852,00003.354492,00002.680664,00002.568359,00002.670898,00003.193359,00002.773438,00002.553711,-00001.674805,-00000.639648,-00000.585938,-00000.107422,-00000.087891,-00000.068359
0000000015124,00002.558594,00002.260742,00002.167969,00003.354492,00002.680664,00002.568359,00002.666016,00003.193359,00002.768555,00002.553711,-00001.679688,-00000.634766,-00000.585938,-00000.107422,-00000.092773,-00000.068359
0000000015125,00002.558594,00002.265625,00002.172852,00003.354492,00002.680664,00002.568359,00002.670898,00003.193359,00002.768555,00002.558594,-00001.684570,-00000.634766,-00000.590820,-00000.097656,-00000.083008,-00000.068359
0000000015126,00002.558594,00002.270508,00002.163086,00003.359375,00002.680664,00002.568359,00002.670898,00003.188477,00002.773438,00002.548828,-00001.689453,-00000.634766,-00000.590820,-00000.102539,-00000.083008,-00000.058594
0000000015127,00002.558594,00002.260742,00002.167969,00003.359375,00002.680664,00002.563477,00002.666016,00003.193359,00002.773438,00002.553711,-00001.699219,-00000.639648,-00000.595703,-00000.112305,-00000.097656,-00000.058594
0000000015128,00002.558594,00002.260742,00002.167969,00003.354492,00002.685547,00002.563477,00002.670898,00003.193359,00002.768555,00002.553711,-00001.699219,-00000.634766,-00000.595703,-00000.102539,-00000.092773,-00000.068359
0000000015129,00002.558594,00002.265625,00002.172852,00003.359375,00002.680664,00002.568359,00002.666016,00003.193359,00002.773438,00002.553711,-00001.689453,-00000.629883,-00000.590820,-00000.097656,-00000.068359,-00000.073242
0000000015130,00002.558594,00002.265625,00002.172852,00003.354492,00002.685547,00002.563477,00002.670898,00003.193359,00002.773438,00002.553711,-00001.699219,-00000.634766,-00000.600586,-00000.097656,-00000.068359,-00000.063477
0000000015131,00002.558594,00002.265625,00002.167969,00003.359375,00002.680664,00002.568359,00002.666016,00003.193359,00002.768555,00002.548828,-00001.699219,-00000.639648,-00000.595703,-00000.102539,-00000.083008,-00000.063477
0000000015132,00002.558594,00002.260742,00002.172852,00003.359375,00002.680664,00002.568359,00002.661133,00003.193359,00002.768555,00002.553711,-00001.708984,-00000.639648,-00000.590820,-00000.102539,-00000.078125,-00000.058594
0000000015133,00002.558594,00002.270508,00002.172852,00003.359375,00002.685547,00002.563477,00002.670898,00003.193359,00002.773438,00002.553711,-00001.699219,-00000.629883,-00000.595703,-00000.102539,-00000.078125,-00000.058594
0000000015134,00002.558594,00002.275391,00002.172852,00003.364258,00002.685547,00002.568359,00002.675781,00003.188477,00002.778320,00002.553711,-00001.679688,-00000.620117,-00000.590820,-00000.102539,-00000.078125,-00000.058594
0000000015135,00002.558594,00002.270508,00002.167969,00003.364258,00002.680664,00002.568359,00002.666016,00003.188477,00002.773438,00002.548828,-00001.679688,-00000.639648,-00000.585938,-00000.092773,-00000.058594,-00000.048828
0000000015136,00002.553711,00002.270508,00002.167969,00003.359375,00002.680664,00002.563477,00002.675781,00003.188477,00002.778320,00002.548828,-00001.694336,-00000.654297,-00000.590820,-00000.102539,-00000.058594,-00000.053711
0000000015137,00002.558594,00002.265625,00002.167969,00003.364258,00002.675781,00002.568359,00002.666016,00003.188477,00002.773438,00002.548828,-00001.679688,-00000.649414,-00000.590820,-00000.107422,-00000.083008,-00000.058594
0000000015138,00002.553711,00002.270508,00002.167969,00003.359375,00002.680664,00002.563477,00002.670898,00003.188477,00002.778320,00002.553711,-00001.669922,-00000.639648,-00000.590820,-00000.102539,-00000.078125,-00000.063477
0000000015139,00002.553711,00002.260742,00002.163086,00003.359375,00002.675781,00002.568359,00002.670898,00003.188477,00002.773438,00002.548828,-00001.669922,-00000.649414,-00000.595703,-00000.097656,-00000.058594,-00000.058594
0000000015140,00002.558594,00002.255859,00002.163086,00003.359375,00002.680664,00002.568359,00002.666016,00003.193359,00002.773438,00002.553711,-00001.684570,-00000.659180,-00000.605469,-00000.107422,-00000.053711,-00000.053711
0000000015141,00002.553711,00002.260742,00002.148438,00003.354492,00002.680664,00002.558594,00002.670898,00003.188477,00002.768555,00002.548828,-00001.699219,-00000.654297,-00000.600586,-00000.112305,-00000.083008,-00000.053711
0000000015142,00002.558594,00002.255859,00002.148438,00003.359375,00002.680664,00002.563477,00002.666016,00003.193359,00002.763672,00002.548828,-00001.704102,-00000.654297,-00000.600586,-00000.102539,-00000.073242,-00000.058594
0000000015143,00002.558594,00002.255859,00002.138672,00003.354492,00002.680664,00002.558594,00002.666016,00003.193359,00002.763672,00002.548828,-00001.738281,-00000.673828,-00000.625000,-00000.107422,-00000.063477,-00000.048828
