0000000000507,00002.758789,00002.592773,00002.231445,00003.139648,00002.709961,00002.734375,00002.729492,00003.251953,00002.919922,00002.661133,-00000.405273,-00000.073242,-00000.561523,-00000.053711,-00000.092773,-00000.039063
0000000000508,00002.758789,00002.587891,00002.231445,00003.134766,00002.709961,00002.729492,00002.734375,00003.251953,00002.919922,00002.666016,-00000.410156,-00000.073242,-00000.561523,-00000.053711,-00000.087891,-00000.039063
0000000000509,00002.758789,00002.587891,00002.231445,00003.134766,00002.705078,00002.734375,00002.729492,00003.256836,00002.919922,00002.661133,-00000.405273,-00000.073242,-00000.556641,-00000.053711,-00000.083008,-00000.034180
0000000000510,00002.753906,00002.583008,00002.226563,00003.134766,00002.700195,00002.734375,00002.724609,00003.251953,00002.919922,00002.661133,-00000.405273,-00000.068359,-00000.556641,-00000.048828,-00000.083008,-00000.039063
0000000000511,00002.753906,00002.592773,00002.231445,00003.129883,00002.705078,00002.729492,00002.729492,00003.242188,00002.919922,00002.661133,-00000.405273,-00000.068359,-00000.556641,-00000.048828,-00000.083008,-00000.034180
0000000000512,00002.758789,00002.583008,00002.231445,00003.134766,00002.700195,00002.734375,00002.724609,00003.247070,00002.915039,00002.661133,-00000.405273,-00000.068359,-00000.556641,-00000.053711,-00000.078125,-00000.034180
0000000000513,00002.753906,00002.587891,00002.231445,00003.129883,00002.705078,00002.729492,00002.734375,00003.242188,00002.919922,00002.661133,-00000.405273,-00000.068359,-00000.556641,-00000.053711,-00000.083008,-00000.039063
0000000000514,00002.753906,00002.587891,00002.226563,00003.134766,00002.705078,00002.734375,00002.729492,00003.237305,00002.924805,00002.661133,-00000.405273,-00000.068359,-00000.556641,-00000.053711,-00000.083008,-00000.034180
0000000000515,00002.753906,00002.587891,00002.226563,00003.134766,00002.705078,00002.734375,00002.734375,00003.242188,00002.924805,00002.661133,-00000.405273,-00000.068359,-00000.556641,-00000.053711,-00000.083008,-00000.039063
0000000000516,00002.749023,00002.587891,00002.226563,00003.129883,00002.705078,00002.729492,00002.729492,00003.242188,00002.919922,00002.656250,-00000.405273,-00000.068359,-00000.556641,-00000.053711,-00000.078125,-00000.039063
0000000000517,00002.753906,00002.583008,00002.226563,00003.134766,00002.700195,00002.734375,00002.729492,00003.247070,00002.915039,00002.656250,-00000.405273,-00000.073242,-00000.556641,-00000.053711,-00000.078125,-00000.039063
0000000000518,00002.753906,00002.578125,00002.226563,00003.129883,00002.705078,00002.729492,00002.729492,00003.247070,00002.915039,00002.661133,-00000.405273,-00000.068359,-00000.556641,-00000.053711,-00000.078125,-00000.034180
0000000000519,00002.753906,00002.578125,00002.231445,00003.129883,00002.705078,00002.729492,00002.729492,00003.247070,00002.915039,00002.661133,-00000.405273,-00000.068359,-00000.556641,-00000.053711,-00000.078125,-00000.034180
0000000000520,00002.758789,00002.583008,00002.226563,00003.139648,00002.705078,00002.734375,00002.729492,00003.247070,00002.919922,00002.661133,-00000.405273,-00000.068359,-00000.556641,-00000.053711,-00000.083008,-00000.034180
0000000000521,00002.753906,00002.578125,00002.226563,00003.129883,00002.700195,00002.734375,00002.724609,00003.242188,00002.919922,00002.656250,-00000.405273,-00000.068359,-00000.556641,-00000.053711,-00000.083008,-00000.034180
0000000000522,00002.753906,00002.583008,00002.226563,00003.129883,00002.705078,00002.729492,00002.734375,00003.242188,00002.919922,00002.661133,-00000.405273,-00000.068359,-00000.556641,-00000.053711,-00000.078125,-00000.034180
0000000000523,00002.753906,00002.583008,00002.231445,00003.129883,00002.705078,00002.729492,00002.729492,00003.242188,00002.915039,00002.661133,-00000.405273,-00000.068359,-00000.561523,-00000.053711,-00000.078125,-00000.034180
0000000000524,00002.753906,00002.583008,00002.231445,00003.129883,00002.709961,00002.729492,00002.734375,00003.247070,00002.915039,00002.661133,-00000.405273,-00000.073242,-00000.561523,-00000.053711,-00000.078125,-00000.034180
0000000000525,00002.753906,00002.583008,00002.226563,00003.134766,00002.700195,00002.734375,00002.729492,00003.237305,00002.919922,00002.656250,-00000.410156,-00000.068359,-00000.561523,-00000.053711,-00000.083008,-00000.034180
0000000000526,00002.758789,00002.583008,00002.236328,00003.129883,00002.709961,00002.734375,00002.729492,00003.247070,00002.915039,00002.661133,-00000.405273,-00000.073242,-00000.561523,-00000.053711,-00000.083008,-00000.034180
0000000000527,00002.749023,00002.583008,00002.226563,00003.129883,00002.705078,00002.724609,00002.729492,00003.242188,00002.915039,00002.656250,-00000.405273,-00000.068359,-00000.561523,-00000.053711,-00000.083008,-00000.034180
0000000000528,00002.753906,00002.578125,00002.226563,00003.125000,00002.709961,00002.729492,00002.734375,00003.242188,00002.915039,00002.661133,-00000.405273,-00000.068359,-00000.561523,-00000.053711,-00000.083008,-00000.034180
0000000000529,00002.753906,00002.578125,00002.231445,00003.129883,00002.705078,00002.729492,00002.729492,00003.242188,00002.915039,00002.661133,-00000.405273,-00000.068359,-00000.561523,-00000.053711,-00000.083008,-00000.034180
0000000000530,00002.749023,00002.583008,00002.226563,00003.134766,00002.705078,00002.729492,00002.729492,00003.237305,00002.915039,00002.656250,-00000.410156,-00000.073242,-00000.561523,-00000.053711,-00000.083008,-00000.034180
0000000000531,00002.753906,00002.578125,00002.226563,00003.129883,00002.705078,00002.729492,00002.729492,00003.242188,00002.915039,00002.661133,-00000.410156,-00000.073242,-00000.561523,-00000.053711,-00000.083008,-00000.034180
0000000000532,00002.753906,00002.583008,00002.231445,00003.129883,00002.705078,00002.724609,00002.729492,00003.242188,00002.915039,00002.661133,-00000.410156,-00000.073242,-00000.561523,-00000.053711,-00000.083008,-00000.034180
0000000000533,00002.753906,00002.587891,00002.221680,00003.134766,00002.705078,00002.729492,00002.729492,00003.237305,00002.915039,00002.656250,-00000.405273,-00000.073242,-00000.561523,-00000.053711,-00000.083008,-00000.034180
0000000000534,00002.753906,00002.583008,00002.226563,00003.134766,00002.705078,00002.724609,00002.729492,00003.237305,00002.919922,00002.656250,-00000.405273,-00000.068359,-00000.561523,-00000.053711,-00000.083008,-00000.034180
0000000000535,00002.753906,00002.587891,00002.226563,00003.134766,00002.705078,00002.729492,00002.729492,00003.242188,00002.919922,00002.656250,-00000.405273,-00000.068359,-00000.561523,-00000.053711,-00000.083008,-00000.034180
0000000000536,00002.753906,00002.583008,00002.226563,00003.139648,00002.700195,00002.734375,00002.729492,00003.242188,00002.915039,00002.661133,-00000.405273,-00000.073242,-00000.561523,-00000.053711,-00000.083008,-00000.034180
0000000000537,00002.753906,00002.583008,00002.226563,00003.134766,00002.700195,00002.734375,00002.724609,00003.247070,00002.915039,00002.656250,-00000.410156,-00000.073242,-00000.561523,-00000.053711,-00000.083008,-00000.034180
0000000000538,00002.753906,00002.583008,00002.226563,00003.134766,00002.700195,00002.729492,00002.724609,00003.242188,00002.915039,00002.656250,-00000.405273,-00000.068359,-00000.556641,-00000.053711,-00000.083008,-00000.034180
0000000000539,00002.753906,00002.583008,00002.226563,00003.134766,00002.705078,00002.729492,00002.729492,00003.242188,00002.919922,00002.656250,-00000.410156,-00000.073242,-00000.561523,-00000.053711,-00000.087891,-00000.034180
0000000000540,00002.753906,00002.583008,00002.231445,00003.129883,00002.705078,00002.724609,00002.729492,00003.242188,00002.915039,00002.661133,-00000.410156,-00000.073242,-00000.566406,-00000.053711,-00000.087891,-00000.034180
0000000000541,00002.753906,00002.587891,00002.226563,00003.129883,00002.705078,00002.724609,00002.734375,00003.242188,00002.919922,00002.661133,-00000.410156,-00000.073242,-00000.561523,-00000.058594,-00000.087891,-00000.029297
0000000000542,00002.753906,00002.587891,00002.226563,00003.134766,00002.705078,00002.724609,00002.729492,00003.242188,00002.919922,00002.661133,-00000.410156,-00000.073242,-00000.561523,-00000.058594,-00000.087891,-00000.029297
0000000000543,00002.749023,00002.587891,00002.226563,00003.134766,00002.709961,00002.724609,00002.729492,00003.242188,00002.919922,00002.656250,-00000.410156,-00000.073242,-00000.561523,-00000.058594,-00000.087891,-00000.029297
0000000000544,00002.758789,00002.587891,00002.231445,00003.139648,00002.705078,00002.729492,00002.724609,00003.242188,00002.915039,00002.656250,-00000.410156,-00000.073242,-00000.561523,-00000.053711,-00000.083008,-00000.034180
0000000000545,00002.758789,00002.587891,00002.226563,00003.139648,00002.700195,00002.729492,00002.729492,00003.242188,00002.919922,00002.656250,-00000.405273,-00000.073242,-00000.561523,-00000.053711,-00000.083008,-00000.029297
0000000000546,00002.753906,00002.583008,00002.231445,00003.129883,00002.709961,00002.724609,00002.729492,00003.242188,00002.915039,00002.661133,-00000.405273,-00000.073242,-00000.556641,-00000.058594,-00000.083008,-00000.034180
0000000000547,00002.753906,00002.587891,00002.231445,00003.129883,00002.709961,00002.724609,00002.729492,00003.242188,00002.915039,00002.661133,-00000.405273,-00000.073242,-00000.561523,-00000.053711,-00000.087891,-00000.029297
0000000000548,00002.753906,00002.587891,00002.226563,00003.139648,00002.705078,00002.729492,00002.729492,00003.242188,00002.919922,00002.656250,-00000.405273,-00000.073242,-00000.561523,-00000.058594,-00000.092773,-00000.029297
0000000000549,00002.758789,00002.583008,00002.231445,00003.134766,00002.709961,00002.729492,00002.724609,00003.251953,00002.915039,00002.661133,-00000.405273,-00000.073242,-00000.561523,-00000.053711,-00000.087891,-00000.034180
0000000000550,00002.753906,00002.592773,00002.226563,00003.134766,00002.709961,00002.724609,00002.729492,00003.247070,00002.919922,00002.661133,-00000.405273,-00000.068359,-00000.561523,-00000.053711,-00000.087891,-00000.034180
0000000000551,00002.753906,00002.587891,00002.226563,00003.129883,00002.709961,00002.724609,00002.729492,00003.242188,00002.919922,00002.661133,-00000.405273,-00000.073242,-00000.561523,-00000.053711,-00000.087891,-00000.029297
0000000000552,00002.753906,00002.587891,00002.226563,00003.134766,00002.705078,00002.729492,00002.729492,00003.247070,00002.919922,00002.661133,-00000.405273,-00000.073242,-00000.561523,-00000.053711,-00000.087891,-00000.029297
0000000000553,00002.753906,00002.587891,00002.231445,00003.134766,00002.709961,00002.724609,00002.729492,00003.247070,00002.919922,00002.661133,-00000.405273,-00000.068359,-00000.561523,-00000.053711,-00000.087891,-00000.029297
0000000000554,00002.753906,00002.587891,00002.226563,00003.134766,00002.705078,00002.724609,00002.729492,00003.247070,00002.919922,00002.656250,-00000.405273,-00000.068359,-00000.556641,-00000.053711,-00000.087891,-00000.034180
0000000000555,00002.758789,00002.587891,00002.226563,00003.134766,00002.700195,00002.729492,00002.729492,00003.242188,00002.919922,00002.656250,-00000.405273,-00000.068359,-00000.561523,-00000.053711,-00000.083008,-00000.029297
0000000000556,00002.753906,00002.583008,00002.226563,00003.134766,00002.700195,00002.724609,00002.729492,00003.242188,00002.919922,00002.656250,-00000.405273,-00000.068359,-00000.561523,-00000.053711,-00000.087891,-00000.029297
0000000000557,00002.758789,00002.583008,00002.226563,00003.129883,00002.700195,00002.729492,00002.724609,00003.242188,00002.915039,00002.661133,-00000.405273,-00000.073242,-00000.561523,-00000.058594,-00000.087891,-00000.034180
0000000000558,00002.753906,00002.583008,00002.226563,00003.129883,00002.705078,00002.724609,00002.734375,00003.242188,00002.915039,00002.661133,-00000.410156,-00000.073242,-00000.561523,-00000.058594,-00000.087891,-00000.029297
0000000000559,00002.753906,00002.583008,00002.226563,00003.134766,00002.705078,00002.734375,00002.729492,00003.242188,00002.919922,00002.656250,-00000.405273,-00000.073242,-00000.561523,-00000.053711,-00000.087891,-00000.034180
0000000000560,00002.753906,00002.578125,00002.231445,00003.125000,00002.705078,00002.729492,00002.729492,00003.242188,00002.915039,00002.661133,-00000.405273,-00000.068359,-00000.561523,-00000.058594,-00000.087891,-00000.029297
0000000000561,00002.749023,00002.578125,00002.221680,00003.129883,00002.700195,00002.729492,00002.729492,00003.242188,00002.915039,00002.656250,-00000.405273,-00000.068359,-00000.561523,-00000.053711,-00000.087891,-00000.029297
0000000000562,00002.749023,00002.583008,00002.226563,00003.125000,00002.705078,00002.724609,00002.729492,00003.242188,00002.915039,00002.656250,-00000.405273,-00000.068359,-00000.561523,-00000.053711,-00000.083008,-00000.034180
0000000000563,00002.758789,00002.578125,00002.226563,00003.129883,00002.700195,00002.729492,00002.724609,00003.242188,00002.915039,00002.661133,-00000.405273,-00000.068359,-00000.561523,-00000.053711,-00000.087891,-00000.034180
0000000000564,00002.753906,00002.578125,00002.226563,00003.129883,00002.700195,00002.734375,00002.724609,00003.247070,00002.915039,00002.656250,-00000.405273,-00000.068359,-00000.566406,-00000.053711,-00000.087891,-00000.029297
0000000000565,00002.749023,00002.583008,00002.226563,00003.129883,00002.700195,00002.729492,00002.729492,00003.237305,00002.915039,00002.656250,-00000.405273,-00000.073242,-00000.561523,-00000.053711,-00000.087891,-00000.029297
0000000000566,00002.753906,00002.578125,00002.231445,00003.125000,00002.705078,00002.729492,00002.729492,00003.242188,00002.915039,00002.661133,-00000.405273,-00000.073242,-00000.561523,-00000.053711,-00000.092773,-00000.029297
0000000000567,00002.753906,00002.578125,00002.226563,00003.134766,00002.700195,00002.734375,00002.724609,00003.247070,00002.915039,00002.656250,-00000.405273,-00000.068359,-00000.561523,-00000.053711,-00000.092773,-00000.029297
0000000000568,00002.753906,00002.583008,00002.226563,00003.129883,00002.705078,00002.724609,00002.729492,00003.237305,00002.915039,00002.656250,-00000.405273,-00000.073242,-00000.561523,-00000.053711,-00000.092773,-00000.029297
0000000000569,00002.758789,00002.578125,00002.231445,00003.129883,00002.705078,00002.729492,00002.724609,00003.247070,00002.910156,00002.661133,-00000.405273,-00000.068359,-00000.561523,-00000.053711,-00000.087891,-00000.029297
0000000000570,00002.758789,00002.578125,00002.231445,00003.129883,00002.705078,00002.729492,00002.724609,00003.247070,00002.910156,00002.661133,-00000.405273,-00000.068359,-00000.561523,-00000.058594,-00000.087891,-00000.029297
0000000000571,00002.744141,00002.578125,00002.221680,00003.125000,00002.700195,00002.724609,00002.729492,00003.232422,00002.910156,00002.656250,-00000.405273,-00000.068359,-00000.556641,-00000.058594,-00000.087891,-00000.034180
0000000000572,00002.753906,00002.578125,00002.231445,00003.129883,00002.700195,00002.734375,00002.724609,00003.242188,00002.915039,00002.656250,-00000.405273,-00000.073242,-00000.561523,-00000.053711,-00000.087891,-00000.029297
0000000000573,00002.753906,00002.578125,00002.226563,00003.134766,00002.700195,00002.734375,00002.729492,00003.247070,00002.915039,00002.661133,-00000.410156,-00000.073242,-00000.561523,-00000.058594,-00000.087891,-00000.029297
0000000000574,00002.753906,00002.578125,00002.231445,00003.129883,00002.705078,00002.729492,00002.729492,00003.242188,00002.910156,00002.661133,-00000.410156,-00000.073242,-00000.566406,-00000.058594,-00000.092773,-00000.029297
0000000000575,00002.753906,00002.578125,00002.231445,00003.129883,00002.700195,00002.734375,00002.724609,00003.247070,00002.910156,00002.656250,-00000.410156,-00000.073242,-00000.566406,-00000.058594,-00000.092773,-00000.029297
0000000000576,00002.753906,00002.578125,00002.226563,00003.129883,00002.700195,00002.729492,00002.724609,00003.242188,00002.910156,00002.656250,-00000.410156,-00000.073242,-00000.566406,-00000.058594,-00000.092773,-00000.029297
0000000000577,00002.753906,00002.583008,00002.226563,00003.134766,00002.700195,00002.734375,00002.729492,00003.242188,00002.915039,00002.656250,-00000.405273,-00000.073242,-00000.566406,-00000.058594,-00000.087891,-00000.029297
0000000000578,00002.749023,00002.578125,00002.226563,00003.125000,00002.705078,00002.724609,00002.724609,00003.242188,00002.910156,00002.656250,-00000.405273,-00000.073242,-00000.566406,-00000.053711,-00000.087891,-00000.029297
0000000000579,00002.753906,00002.578125,00002.226563,00003.125000,00002.705078,00002.729492,00002.729492,00003.242188,00002.910156,00002.661133,-00000.405273,-00000.073242,-00000.561523,-00000.058594,-00000.083008,-00000.029297
0000000000580,00002.753906,00002.578125,00002.226563,00003.129883,00002.700195,00002.734375,00002.724609,00003.247070,00002.910156,00002.661133,-00000.405273,-00000.073242,-00000.561523,-00000.058594,-00000.087891,-00000.029297
0000000000581,00002.753906,00002.578125,00002.231445,00003.125000,00002.705078,00002.729492,00002.729492,00003.242188,00002.910156,00002.661133,-00000.405273,-00000.073242,-00000.561523,-00000.058594,-00000.092773,-00000.029297
0000000000582,00002.753906,00002.578125,00002.226563,00003.129883,00002.705078,00002.734375,00002.724609,00003.247070,00002.910156,00002.661133,-00000.405273,-00000.073242,-00000.561523,-00000.058594,-00000.092773,-00000.029297
0000000000583,00002.753906,00002.578125,00002.226563,00003.125000,00002.705078,00002.729492,00002.729492,00003.237305,00002.915039,00002.661133,-00000.405273,-00000.073242,-00000.561523,-00000.058594,-00000.092773,-00000.029297
0000000000584,00002.753906,00002.573242,00002.226563,00003.129883,00002.700195,00002.729492,00002.724609,00003.242188,00002.910156,00002.661133,-00000.405273,-00000.073242,-00000.561523,-00000.058594,-00000.092773,-00000.029297
0000000000585,00002.744141,00002.583008,00002.221680,00003.129883,00002.700195,00002.724609,00002.729492,00003.237305,00002.915039,00002.656250,-00000.405273,-00000.073242,-00000.561523,-00000.058594,-00000.092773,-00000.029297
0000000000586,00002.758789,00002.578125,00002.231445,00003.129883,00002.700195,00002.729492,00002.729492,00003.242188,00002.910156,00002.661133,-00000.405273,-00000.068359,-00000.561523,-00000.053711,-00000.092773,-00000.029297
0000000000587,00002.758789,00002.578125,00002.226563,00003.134766,00002.700195,00002.734375,00002.724609,00003.242188,00002.915039,00002.656250,-00000.405273,-00000.068359,-00000.561523,-00000.053711,-00000.092773,-00000.034180
0000000000588,00002.753906,00002.578125,00002.226563,00003.129883,00002.700195,00002.734375,00002.724609,00003.247070,00002.915039,00002.661133,-00000.400391,-00000.068359,-00000.561523,-00000.053711,-00000.097656,-00000.029297
0000000000589,00002.753906,00002.578125,00002.231445,00003.129883,00002.705078,00002.729492,00002.729492,00003.247070,00002.915039,00002.661133,-00000.405273,-00000.073242,-00000.561523,-00000.058594,-00000.097656,-00000.029297
0000000000590,00002.753906,00002.583008,00002.226563,00003.129883,00002.705078,00002.729492,00002.729492,00003.242188,00002.915039,00002.661133,-00000.405273,-00000.073242,-00000.561523,-00000.058594,-00000.097656,-00000.029297
0000000000591,00002.753906,00002.583008,00002.226563,00003.125000,00002.700195,00002.729492,00002.729492,00003.242188,00002.915039,00002.656250,-00000.405273,-00000.073242,-00000.561523,-00000.058594,-00000.097656,-00000.034180
0000000000592,00002.753906,00002.587891,00002.226563,00003.129883,00002.700195,00002.729492,00002.729492,00003.237305,00002.915039,00002.656250,-00000.400391,-00000.068359,-00000.561523,-00000.058594,-00000.102539,-00000.034180
0000000000593,00002.758789,00002.583008,00002.226563,00003.134766,00002.700195,00002.734375,00002.724609,00003.242188,00002.915039,00002.661133,-00000.400391,-00000.068359,-00000.561523,-00000.058594,-00000.097656,-00000.034180
0000000000594,00002.749023,00002.583008,00002.226563,00003.134766,00002.700195,00002.734375,00002.729492,00003.237305,00002.919922,00002.656250,-00000.400391,-00000.068359,-00000.561523,-00000.058594,-00000.097656,-00000.034180
0000000000595,00002.753906,00002.578125,00002.226563,00003.129883,00002.705078,00002.729492,00002.729492,00003.247070,00002.915039,00002.666016,-00000.400391,-00000.068359,-00000.561523,-00000.058594,-00000.092773,-00000.034180
0000000000596,00002.749023,00002.583008,00002.226563,00003.134766,00002.700195,00002.724609,00002.729492,00003.242188,00002.919922,00002.656250,-00000.400391,-00000.068359,-00000.561523,-00000.058594,-00000.097656,-00000.029297
0000000000597,00002.753906,00002.583008,00002.226563,00003.129883,00002.700195,00002.729492,00002.729492,00003.237305,00002.915039,00002.656250,-00000.400391,-00000.068359,-00000.561523,-00000.053711,-00000.097656,-00000.034180
0000000000598,00002.758789,00002.583008,00002.231445,00003.129883,00002.705078,00002.734375,00002.724609,00003.247070,00002.915039,00002.661133,-00000.400391,-00000.068359,-00000.561523,-00000.058594,-00000.097656,-00000.034180
0000000000599,00002.753906,00002.587891,00002.226563,00003.134766,00002.700195,00002.729492,00002.729492,00003.237305,00002.919922,00002.656250,-00000.400391,-00000.068359,-00000.561523,-00000.053711,-00000.097656,-00000.034180
0000000000600,00002.753906,00002.583008,00002.226563,00003.134766,00002.695313,00002.734375,00002.724609,00003.242188,00002.919922,00002.656250,-00000.400391,-00000.068359,-00000.561523,-00000.053711,-00000.097656,-00000.029297
0000000000601,00002.758789,00002.583008,00002.231445,00003.134766,00002.695313,00002.729492,00002.724609,00003.242188,00002.919922,00002.661133,-00000.400391,-00000.068359,-00000.556641,-00000.053711,-00000.092773,-00000.034180
0000000000602,00002.758789,00002.583008,00002.231445,00003.129883,00002.700195,00002.729492,00002.729492,00003.242188,00002.919922,00002.661133,-00000.400391,-00000.068359,-00000.556641,-00000.053711,-00000.092773,-00000.034180
0000000000603,00002.749023,00002.587891,00002.226563,00003.129883,00002.700195,00002.729492,00002.729492,00003.242188,00002.924805,00002.656250,-00000.400391,-00000.068359,-00000.561523,-00000.053711,-00000.097656,-00000.034180
0000000000604,00002.758789,00002.583008,00002.231445,00003.129883,00002.705078,00002.729492,00002.724609,00003.247070,00002.915039,00002.661133,-00000.400391,-00000.068359,-00000.556641,-00000.058594,-00000.092773,-00000.034180
0000000000605,00002.749023,00002.587891,00002.226563,00003.134766,00002.700195,00002.734375,00002.729492,00003.247070,00002.919922,00002.656250,-00000.400391,-00000.073242,-00000.561523,-00000.053711,-00000.092773,-00000.034180
0000000000606,00002.753906,00002.587891,00002.226563,00003.134766,00002.700195,00002.729492,00002.729492,00003.247070,00002.924805,00002.656250,-00000.400391,-00000.068359,-00000.561523,-00000.053711,-00000.092773,-00000.034180
0000000000607,00002.753906,00002.587891,00002.231445,00003.129883,00002.705078,00002.729492,00002.729492,00003.247070,00002.919922,00002.661133,-00000.400391,-00000.068359,-00000.556641,-00000.053711,-00000.092773,-00000.034180
0000000000608,00002.749023,00002.583008,00002.226563,00003.125000,00002.700195,00002.724609,00002.734375,00003.242188,00002.919922,00002.661133,-00000.400391,-00000.068359,-00000.556641,-00000.053711,-00000.092773,-00000.034180
0000000000609,00002.758789,00002.578125,00002.231445,00003.125000,00002.705078,00002.724609,00002.729492,00003.247070,00002.915039,00002.661133,-00000.400391,-00000.073242,-00000.561523,-00000.053711,-00000.087891,-00000.034180
0000000000610,00002.758789,00002.578125,00002.226563,00003.129883,00002.700195,00002.724609,00002.724609,00003.242188,00002.915039,00002.656250,-00000.400391,-00000.068359,-00000.561523,-00000.053711,-00000.092773,-00000.029297
0000000000611,00002.753906,00002.583008,00002.231445,00003.125000,00002.705078,00002.724609,00002.729492,00003.242188,00002.915039,00002.661133,-00000.400391,-00000.068359,-00000.561523,-00000.053711,-00000.092773,-00000.034180
0000000000612,00002.753906,00002.573242,00002.226563,00003.125000,00002.695313,00002.724609,00002.724609,00003.247070,00002.915039,00002.656250,-00000.400391,-00000.068359,-00000.561523,-00000.058594,-00000.087891,-00000.034180
0000000000613,00002.758789,00002.578125,00002.231445,00003.125000,00002.705078,00002.724609,00002.729492,00003.242188,00002.915039,00002.661133,-00000.400391,-00000.068359,-00000.561523,-00000.058594,-00000.092773,-00000.034180
0000000000614,00002.749023,00002.583008,00002.226563,00003.129883,00002.700195,00002.729492,00002.729492,00003.242188,00002.915039,00002.656250,-00000.400391,-00000.068359,-00000.561523,-00000.053711,-00000.092773,-00000.034180
0000000000615,00002.749023,00002.578125,00002.221680,00003.125000,00002.700195,00002.724609,00002.729492,00003.242188,00002.915039,00002.661133,-00000.400391,-00000.068359,-00000.556641,-00000.058594,-00000.087891,-00000.034180
0000000000616,00002.753906,00002.573242,00002.226563,00003.129883,00002.695313,00002.729492,00002.724609,00003.242188,00002.910156,00002.656250,-00000.400391,-00000.068359,-00000.556641,-00000.053711,-00000.087891,-00000.034180
0000000000617,00002.753906,00002.578125,00002.231445,00003.129883,00002.700195,00002.729492,00002.724609,00003.247070,00002.910156,00002.661133,-00000.400391,-00000.068359,-00000.561523,-00000.053711,-00000.092773,-00000.034180
0000000000618,00002.753906,00002.578125,00002.226563,00003.129883,00002.695313,00002.734375,00002.724609,00003.242188,00002.915039,00002.656250,-00000.400391,-00000.068359,-00000.556641,-00000.053711,-00000.092773,-00000.029297
0000000000619,00002.758789,00002.578125,00002.231445,00003.134766,00002.705078,00002.734375,00002.729492,00003.247070,00002.915039,00002.666016,-00000.395508,-00000.068359,-00000.556641,-00000.053711,-00000.087891,-00000.034180
0000000000620,00002.749023,00002.583008,00002.226563,00003.129883,00002.700195,00002.729492,00002.729492,00003.242188,00002.915039,00002.656250,-00000.400391,-00000.068359,-00000.556641,-00000.053711,-00000.087891,-00000.034180
0000000000621,00002.749023,00002.578125,00002.221680,00003.129883,00002.700195,00002.729492,00002.729492,00003.237305,00002.919922,00002.656250,-00000.400391,-00000.068359,-00000.561523,-00000.058594,-00000.087891,-00000.029297
0000000000622,00002.749023,00002.578125,00002.226563,00003.134766,00002.700195,00002.729492,00002.729492,00003.242188,00002.919922,00002.661133,-00000.400391,-00000.068359,-00000.561523,-00000.053711,-00000.087891,-00000.029297
0000000000623,00002.753906,00002.573242,00002.231445,00003.129883,00002.700195,00002.734375,00002.724609,00003.242188,00002.910156,00002.661133,-00000.400391,-00000.068359,-00000.556641,-00000.058594,-00000.092773,-00000.029297
0000000000624,00002.753906,00002.578125,00002.226563,00003.134766,00002.695313,00002.734375,00002.724609,00003.247070,00002.910156,00002.656250,-00000.400391,-00000.068359,-00000.561523,-00000.053711,-00000.092773,-00000.029297
0000000000625,00002.753906,00002.578125,00002.226563,00003.129883,00002.700195,00002.734375,00002.724609,00003.247070,00002.910156,00002.661133,-00000.400391,-00000.068359,-00000.561523,-00000.053711,-00000.087891,-00000.029297
0000000000626,00002.749023,00002.583008,00002.226563,00003.129883,00002.700195,00002.729492,00002.729492,00003.237305,00002.915039,00002.656250,-00000.400391,-00000.073242,-00000.561523,-00000.053711,-00000.087891,-00000.034180
0000000000627,00002.753906,00002.578125,00002.226563,00003.134766,00002.695313,00002.734375,00002.724609,00003.242188,00002.915039,00002.656250,-00000.400391,-00000.068359,-00000.561523,-00000.058594,-00000.087891,-00000.034180
0000000000628,00002.749023,00002.578125,00002.226563,00003.134766,00002.700195,00002.729492,00002.729492,00003.237305,00002.919922,00002.656250,-00000.400391,-00000.073242,-00000.561523,-00000.053711,-00000.087891,-00000.029297
0000000000629,00002.749023,00002.583008,00002.226563,00003.125000,00002.700195,00002.729492,00002.729492,00003.242188,00002.915039,00002.656250,-00000.400391,-00000.068359,-00000.561523,-00000.053711,-00000.087891,-00000.029297
0000000000630,00002.749023,00002.583008,00002.226563,00003.134766,00002.700195,00002.734375,00002.729492,00003.242188,00002.919922,00002.656250,-00000.405273,-00000.068359,-00000.561523,-00000.058594,-00000.087891,-00000.029297
0000000000631,00002.749023,00002.578125,00002.226563,00003.134766,00002.700195,00002.729492,00002.729492,00003.237305,00002.919922,00002.656250,-00000.400391,-00000.068359,-00000.561523,-00000.053711,-00000.087891,-00000.029297
0000000000632,00002.753906,00002.578125,00002.221680,00003.129883,00002.695313,00002.729492,00002.729492,00003.242188,00002.915039,00002.656250,-00000.405273,-00000.073242,-00000.561523,-00000.058594,-00000.083008,-00000.029297
0000000000633,00002.749023,00002.578125,00002.226563,00003.125000,00002.700195,00002.729492,00002.729492,00003.242188,00002.915039,00002.661133,-00000.405273,-00000.073242,-00000.561523,-00000.058594,-00000.087891,-00000.029297
0000000000634,00002.749023,00002.578125,00002.226563,00003.125000,00002.695313,00002.724609,00002.729492,00003.237305,00002.915039,00002.656250,-00000.405273,-00000.073242,-00000.561523,-00000.058594,-00000.087891,-00000.029297
0000000000635,00002.753906,00002.578125,00002.226563,00003.129883,00002.695313,00002.734375,00002.724609,00003.242188,00002.910156,00002.656250,-00000.405273,-00000.068359,-00000.561523,-00000.053711,-00000.087891,-00000.029297
0000000000636,00002.753906,00002.583008,00002.231445,00003.129883,00002.705078,00002.729492,00002.734375,00003.242188,00002.915039,00002.661133,-00000.405273,-00000.073242,-00000.561523,-00000.053711,-00000.087891,-00000.029297
0000000000637,00002.753906,00002.573242,00002.226563,00003.129883,00002.700195,00002.729492,00002.724609,00003.242188,00002.910156,00002.661133,-00000.405273,-00000.073242,-00000.561523,-00000.053711,-00000.087891,-00000.029297
0000000000638,00002.753906,00002.578125,00002.226563,00003.129883,00002.695313,00002.729492,00002.724609,00003.247070,00002.915039,00002.661133,-00000.405273,-00000.073242,-00000.561523,-00000.053711,-00000.083008,-00000.029297
0000000000639,00002.753906,00002.578125,00002.226563,00003.129883,00002.700195,00002.724609,00002.729492,00003.242188,00002.915039,00002.661133,-00000.405273,-00000.073242,-00000.561523,-00000.053711,-00000.087891,-00000.029297
0000000000640,00002.753906,00002.583008,00002.226563,00003.129883,00002.705078,00002.729492,00002.729492,00003.242188,00002.915039,00002.661133,-00000.405273,-00000.068359,-00000.561523,-00000.053711,-00000.087891,-00000.029297
0000000000641,00002.758789,00002.578125,00002.231445,00003.129883,00002.705078,00002.729492,00002.729492,00003.242188,00002.910156,00002.661133,-00000.405273,-00000.073242,-00000.561523,-00000.053711,-00000.087891,-00000.029297
0000000000642,00002.749023,00002.583008,00002.226563,00003.129883,00002.705078,00002.729492,00002.734375,00003.242188,00002.915039,00002.661133,-00000.405273,-00000.073242,-00000.561523,-00000.053711,-00000.087891,-00000.029297
0000000000643,00002.758789,00002.583008,00002.226563,00003.134766,00002.695313,00002.734375,00002.729492,00003.242188,00002.915039,00002.661133,-00000.405273,-00000.073242,-00000.561523,-00000.058594,-00000.087891,-00000.029297
0000000000644,00002.753906,00002.578125,00002.226563,00003.125000,00002.700195,00002.729492,00002.729492,00003.237305,00002.915039,00002.661133,-00000.405273,-00000.073242,-00000.561523,-00000.053711,-00000.087891,-00000.029297
0000000000645,00002.753906,00002.583008,00002.226563,00003.129883,00002.700195,00002.729492,00002.729492,00003.242188,00002.915039,00002.661133,-00000.400391,-00000.073242,-00000.561523,-00000.053711,-00000.087891,-00000.029297
0000000000646,00002.758789,00002.583008,00002.231445,00003.134766,00002.695313,00002.734375,00002.724609,00003.247070,00002.910156,00002.661133,-00000.405273,-00000.073242,-00000.561523,-00000.058594,-00000.092773,-00000.029297
0000000000647,00002.753906,00002.583008,00002.226563,00003.129883,00002.705078,00002.729492,00002.734375,00003.242188,00002.919922,00002.656250,-00000.405273,-00000.073242,-00000.566406,-00000.058594,-00000.092773,-00000.029297
0000000000648,00002.753906,00002.583008,00002.226563,00003.129883,00002.695313,00002.729492,00002.724609,00003.247070,00002.915039,00002.656250,-00000.405273,-00000.073242,-00000.566406,-00000.058594,-00000.092773,-00000.029297
0000000000649,00002.753906,00002.583008,00002.226563,00003.125000,00002.700195,00002.724609,00002.729492,00003.237305,00002.910156,00002.661133,-00000.405273,-00000.073242,-00000.566406,-00000.058594,-00000.092773,-00000.029297
0000000000650,00002.749023,00002.583008,00002.226563,00003.129883,00002.700195,00002.724609,00002.729492,00003.242188,00002.915039,00002.656250,-00000.405273,-00000.073242,-00000.566406,-00000.058594,-00000.092773,-00000.029297
0000000000651,00002.753906,00002.583008,00002.226563,00003.134766,00002.695313,00002.729492,00002.724609,00003.242188,00002.915039,00002.656250,-00000.405273,-00000.073242,-00000.566406,-00000.058594,-00000.092773,-00000.029297
0000000000652,00002.753906,00002.587891,00002.231445,00003.134766,00002.700195,00002.729492,00002.734375,00003.242188,00002.919922,00002.656250,-00000.405273,-00000.073242,-00000.566406,-00000.058594,-00000.092773,-00000.029297
0000000000653,00002.753906,00002.587891,00002.226563,00003.129883,00002.700195,00002.724609,00002.729492,00003.242188,00002.915039,00002.656250,-00000.405273,-00000.073242,-00000.561523,-00000.058594,-00000.087891,-00000.029297
0000000000654,00002.753906,00002.583008,00002.226563,00003.134766,00002.695313,00002.729492,00002.724609,00003.242188,00002.915039,00002.656250,-00000.405273,-00000.068359,-00000.561523,-00000.058594,-00000.087891,-00000.029297
0000000000655,00002.758789,00002.583008,00002.231445,00003.129883,00002.700195,00002.724609,00002.724609,00003.247070,00002.910156,00002.661133,-00000.405273,-00000.073242,-00000.566406,-00000.058594,-00000.092773,-00000.029297
0000000000656,00002.758789,00002.587891,00002.231445,00003.134766,00002.700195,00002.729492,00002.729492,00003.247070,00002.915039,00002.661133,-00000.405273,-00000.073242,-00000.566406,-00000.058594,-00000.087891,-00000.029297
0000000000657,00002.753906,00002.587891,00002.226563,00003.134766,00002.700195,00002.729492,00002.729492,00003.242188,00002.919922,00002.656250,-00000.405273,-00000.073242,-00000.566406,-00000.058594,-00000.087891,-00000.029297
0000000000658,00002.758789,00002.587891,00002.231445,00003.134766,00002.695313,00002.734375,00002.724609,00003.251953,00002.915039,00002.656250,-00000.405273,-00000.073242,-00000.561523,-00000.053711,-00000.087891,-00000.029297
0000000000659,00002.753906,00002.587891,00002.226563,00003.125000,00002.705078,00002.729492,00002.729492,00003.247070,00002.915039,00002.656250,-00000.405273,-00000.073242,-00000.561523,-00000.058594,-00000.087891,-00000.029297
0000000000660,00002.753906,00002.583008,00002.226563,00003.125000,00002.700195,00002.729492,00002.729492,00003.247070,00002.915039,00002.661133,-00000.400391,-00000.073242,-00000.561523,-00000.058594,-00000.087891,-00000.029297
0000000000661,00002.758789,00002.587891,00002.231445,00003.129883,00002.705078,00002.734375,00002.729492,00003.251953,00002.915039,00002.661133,-00000.405273,-00000.068359,-00000.561523,-00000.053711,-00000.083008,-00000.029297
0000000000662,00002.753906,00002.592773,00002.226563,00003.134766,00002.700195,00002.734375,00002.729492,00003.247070,00002.919922,00002.656250,-00000.400391,-00000.068359,-00000.561523,-00000.053711,-00000.083008,-00000.029297
0000000000663,00002.758789,00002.583008,00002.231445,00003.129883,00002.705078,00002.729492,00002.729492,00003.247070,00002.915039,00002.661133,-00000.405273,-00000.073242,-00000.561523,-00000.053711,-00000.083008,-00000.029297
0000000000664,00002.753906,00002.583008,00002.226563,00003.129883,00002.700195,00002.724609,00002.724609,00003.247070,00002.910156,00002.661133,-00000.405273,-00000.073242,-00000.561523,-00000.053711,-00000.083008,-00000.029297
0000000000665,00002.758789,00002.578125,00002.231445,00003.129883,00002.705078,00002.724609,00002.724609,00003.242188,00002.910156,00002.661133,-00000.405273,-00000.073242,-00000.561523,-00000.058594,-00000.083008,-00000.024414
0000000000666,00002.753906,00002.583008,00002.226563,00003.134766,00002.695313,00002.729492,00002.729492,00003.242188,00002.915039,00002.656250,-00000.405273,-00000.073242,-00000.561523,-00000.058594,-00000.083008,-00000.024414
0000000000667,00002.758789,00002.583008,00002.231445,00003.129883,00002.705078,00002.734375,00002.729492,00003.242188,00002.910156,00002.661133,-00000.405273,-00000.073242,-00000.561523,-00000.058594,-00000.083008,-00000.024414
0000000000668,00002.749023,00002.583008,00002.221680,00003.129883,00002.700195,00002.729492,00002.729492,00003.237305,00002.915039,00002.656250,-00000.405273,-00000.073242,-00000.561523,-00000.053711,-00000.078125,-00000.029297
0000000000669,00002.753906,00002.578125,00002.226563,00003.129883,00002.705078,00002.729492,00002.729492,00003.242188,00002.915039,00002.661133,-00000.405273,-00000.068359,-00000.561523,-00000.053711,-00000.083008,-00000.029297
0000000000670,00002.753906,00002.578125,00002.226563,00003.129883,00002.705078,00002.729492,00002.734375,00003.242188,00002.915039,00002.661133,-00000.405273,-00000.068359,-00000.561523,-00000.053711,-00000.078125,-00000.029297
0000000000671,00002.753906,00002.578125,00002.231445,00003.129883,00002.695313,00002.734375,00002.724609,00003.242188,00002.910156,00002.656250,-00000.400391,-00000.073242,-00000.561523,-00000.053711,-00000.073242,-00000.029297
0000000000672,00002.753906,00002.578125,00002.231445,00003.125000,00002.705078,00002.729492,00002.729492,00003.242188,00002.915039,00002.661133,-00000.405273,-00000.073242,-00000.561523,-00000.053711,-00000.078125,-00000.024414
0000000000673,00002.753906,00002.578125,00002.226563,00003.134766,00002.695313,00002.729492,00002.724609,00003.242188,00002.910156,00002.656250,-00000.405273,-00000.073242,-00000.561523,-00000.058594,-00000.078125,-00000.029297
0000000000674,00002.753906,00002.578125,00002.226563,00003.134766,00002.695313,00002.734375,00002.724609,00003.242188,00002.910156,00002.656250,-00000.405273,-00000.073242,-00000.561523,-00000.053711,-00000.083008,-00000.024414
0000000000675,00002.749023,00002.583008,00002.226563,00003.134766,00002.700195,00002.729492,00002.729492,00003.242188,00002.915039,00002.656250,-00000.405273,-00000.068359,-00000.561523,-00000.053711,-00000.083008,-00000.029297
0000000000676,00002.753906,00002.583008,00002.226563,00003.134766,00002.695313,00002.734375,00002.729492,00003.237305,00002.915039,00002.656250,-00000.405273,-00000.068359,-00000.561523,-00000.053711,-00000.078125,-00000.024414
0000000000677,00002.753906,00002.578125,00002.231445,00003.129883,00002.700195,00002.734375,00002.724609,00003.242188,00002.910156,00002.656250,-00000.405273,-00000.068359,-00000.561523,-00000.053711,-00000.078125,-00000.024414
0000000000678,00002.753906,00002.578125,00002.226563,00003.129883,00002.700195,00002.729492,00002.729492,00003.242188,00002.915039,00002.656250,-00000.405273,-00000.068359,-00000.561523,-00000.053711,-00000.078125,-00000.024414
0000000000679,00002.758789,00002.578125,00002.226563,00003.129883,00002.695313,00002.729492,00002.724609,00003.242188,00002.915039,00002.656250,-00000.405273,-00000.068359,-00000.561523,-00000.053711,-00000.073242,-00000.029297
0000000000680,00002.753906,00002.583008,00002.226563,00003.129883,00002.700195,00002.729492,00002.729492,00003.237305,00002.915039,00002.656250,-00000.405273,-00000.073242,-00000.561523,-00000.053711,-00000.078125,-00000.024414
0000000000681,00002.753906,00002.578125,00002.226563,00003.134766,00002.695313,00002.734375,00002.724609,00003.242188,00002.915039,00002.656250,-00000.405273,-00000.073242,-00000.561523,-00000.058594,-00000.083008,-00000.029297
0000000000682,00002.749023,00002.578125,00002.226563,00003.125000,00002.700195,00002.729492,00002.729492,00003.242188,00002.910156,00002.661133,-00000.405273,-00000.073242,-00000.561523,-00000.053711,-00000.078125,-00000.024414
0000000000683,00002.753906,00002.578125,00002.226563,00003.125000,00002.700195,00002.729492,00002.729492,00003.242188,00002.910156,00002.661133,-00000.405273,-00000.073242,-00000.561523,-00000.053711,-00000.078125,-00000.029297
0000000000684,00002.749023,00002.583008,00002.226563,00003.134766,00002.700195,00002.729492,00002.729492,00003.242188,00002.919922,00002.656250,-00000.405273,-00000.073242,-00000.561523,-00000.053711,-00000.078125,-00000.024414
0000000000685,00002.753906,00002.578125,00002.226563,00003.134766,00002.695313,00002.734375,00002.724609,00003.242188,00002.915039,00002.656250,-00000.405273,-00000.068359,-00000.561523,-00000.053711,-00000.073242,-00000.029297
0000000000686,00002.753906,00002.578125,00002.226563,00003.125000,00002.700195,00002.729492,00002.729492,00003.242188,00002.910156,00002.661133,-00000.405273,-00000.073242,-00000.561523,-00000.053711,-00000.078125,-00000.029297
0000000000687,00002.758789,00002.578125,00002.226563,00003.129883,00002.700195,00002.729492,00002.724609,00003.247070,00002.910156,00002.656250,-00000.405273,-00000.073242,-00000.556641,-00000.053711,-00000.078125,-00000.029297
0000000000688,00002.753906,00002.583008,00002.226563,00003.134766,00002.700195,00002.734375,00002.729492,00003.237305,00002.915039,00002.656250,-00000.405273,-00000.068359,-00000.556641,-00000.053711,-00000.078125,-00000.029297
0000000000689,00002.758789,00002.578125,00002.231445,00003.129883,00002.700195,00002.734375,00002.729492,00003.247070,00002.910156,00002.661133,-00000.400391,-00000.068359,-00000.556641,-00000.053711,-00000.078125,-00000.029297
0000000000690,00002.749023,00002.583008,00002.226563,00003.134766,00002.700195,00002.734375,00002.729492,00003.242188,00002.915039,00002.656250,-00000.405273,-00000.068359,-00000.556641,-00000.053711,-00000.078125,-00000.034180
0000000000691,00002.749023,00002.583008,00002.226563,00003.134766,00002.700195,00002.729492,00002.729492,00003.237305,00002.915039,00002.656250,-00000.400391,-00000.068359,-00000.556641,-00000.053711,-00000.078125,-00000.029297
0000000000692,00002.749023,00002.578125,00002.226563,00003.129883,00002.700195,00002.724609,00002.724609,00003.232422,00002.910156,00002.656250,-00000.400391,-00000.068359,-00000.556641,-00000.053711,-00000.078125,-00000.029297
0000000000693,00002.753906,00002.573242,00002.231445,00003.129883,00002.700195,00002.724609,00002.724609,00003.242188,00002.910156,00002.661133,-00000.400391,-00000.068359,-00000.556641,-00000.053711,-00000.083008,-00000.034180
0000000000694,00002.753906,00002.578125,00002.226563,00003.129883,00002.700195,00002.724609,00002.729492,00003.242188,00002.910156,00002.661133,-00000.405273,-00000.073242,-00000.556641,-00000.053711,-00000.083008,-00000.029297
0000000000695,00002.753906,00002.578125,00002.226563,00003.129883,00002.695313,00002.729492,00002.724609,00003.242188,00002.910156,00002.656250,-00000.405273,-00000.068359,-00000.556641,-00000.053711,-00000.087891,-00000.029297
0000000000696,00002.753906,00002.578125,00002.226563,00003.125000,00002.700195,00002.724609,00002.724609,00003.247070,00002.915039,00002.666016,-00000.405273,-00000.068359,-00000.556641,-00000.053711,-00000.087891,-00000.034180
0000000000697,00002.758789,00002.583008,00002.231445,00003.129883,00002.695313,00002.729492,00002.724609,00003.247070,00002.910156,00002.661133,-00000.400391,-00000.068359,-00000.556641,-00000.053711,-00000.083008,-00000.029297
0000000000698,00002.753906,00002.587891,00002.226563,00003.134766,00002.700195,00002.724609,00002.729492,00003.237305,00002.915039,00002.656250,-00000.400391,-00000.068359,-00000.556641,-00000.053711,-00000.083008,-00000.029297
0000000000699,00002.753906,00002.583008,00002.226563,00003.134766,00002.695313,00002.729492,00002.724609,00003.242188,00002.915039,00002.656250,-00000.405273,-00000.073242,-00000.556641,-00000.053711,-00000.087891,-00000.029297
0000000000700,00002.753906,00002.583008,00002.226563,00003.134766,00002.700195,00002.729492,00002.729492,00003.242188,00002.919922,00002.661133,-00000.400391,-00000.068359,-00000.556641,-00000.053711,-00000.083008,-00000.029297
0000000000701,00002.753906,00002.587891,00002.231445,00003.129883,00002.705078,00002.734375,00002.724609,00003.247070,00002.910156,00002.661133,-00000.405273,-00000.073242,-00000.561523,-00000.053711,-00000.083008,-00000.029297
0000000000702,00002.749023,00002.587891,00002.226563,00003.134766,00002.700195,00002.734375,00002.724609,00003.242188,00002.919922,00002.661133,-00000.400391,-00000.068359,-00000.556641,-00000.053711,-00000.087891,-00000.029297
0000000000703,00002.753906,00002.587891,00002.231445,00003.129883,00002.700195,00002.734375,00002.729492,00003.251953,00002.919922,00002.661133,-00000.400391,-00000.068359,-00000.556641,-00000.053711,-00000.083008,-00000.029297
0000000000704,00002.749023,00002.592773,00002.226563,00003.129883,00002.705078,00002.729492,00002.729492,00003.247070,00002.919922,00002.661133,-00000.400391,-00000.068359,-00000.556641,-00000.053711,-00000.083008,-00000.034180
0000000000705,00002.753906,00002.587891,00002.231445,00003.129883,00002.705078,00002.729492,00002.729492,00003.247070,00002.919922,00002.661133,-00000.400391,-00000.068359,-00000.561523,-00000.053711,-00000.083008,-00000.034180
0000000000706,00002.758789,00002.583008,00002.231445,00003.129883,00002.700195,00002.729492,00002.724609,00003.247070,00002.915039,00002.666016,-00000.405273,-00000.073242,-00000.561523,-00000.053711,-00000.087891,-00000.034180
0000000000707,00002.749023,00002.587891,00002.226563,00003.129883,00002.700195,00002.729492,00002.729492,00003.242188,00002.919922,00002.656250,-00000.405273,-00000.073242,-00000.561523,-00000.053711,-00000.087891,-00000.034180
0000000000708,00002.758789,00002.592773,00002.231445,00003.139648,00002.705078,00002.739258,00002.729492,00003.251953,00002.919922,00002.661133,-00000.400391,-00000.073242,-00000.561523,-00000.053711,-00000.087891,-00000.034180
0000000000709,00002.753906,00002.592773,00002.226563,00003.139648,00002.705078,00002.734375,00002.729492,00003.247070,00002.924805,00002.661133,-00000.400391,-00000.068359,-00000.561523,-00000.058594,-00000.087891,-00000.034180
0000000000710,00002.753906,00002.592773,00002.226563,00003.134766,00002.705078,00002.734375,00002.729492,00003.251953,00002.924805,00002.661133,-00000.400391,-00000.068359,-00000.561523,-00000.053711,-00000.083008,-00000.029297
0000000000711,00002.753906,00002.592773,00002.231445,00003.129883,00002.705078,00002.729492,00002.734375,00003.251953,00002.919922,00002.661133,-00000.400391,-00000.073242,-00000.561523,-00000.058594,-00000.078125,-00000.034180
0000000000712,00002.749023,00002.592773,00002.226563,00003.139648,00002.705078,00002.734375,00002.729492,00003.251953,00002.924805,00002.661133,-00000.400391,-00000.073242,-00000.561523,-00000.058594,-00000.083008,-00000.034180
0000000000713,00002.753906,00002.587891,00002.231445,00003.129883,00002.709961,00002.729492,00002.729492,00003.251953,00002.919922,00002.661133,-00000.400391,-00000.073242,-00000.561523,-00000.058594,-00000.083008,-00000.034180
0000000000714,00002.763672,00002.592773,00002.231445,00003.139648,00002.709961,00002.734375,00002.729492,00003.256836,00002.919922,00002.666016,-00000.400391,-00000.073242,-00000.561523,-00000.058594,-00000.083008,-00000.034180
0000000000715,00002.758789,00002.587891,00002.231445,00003.134766,00002.705078,00002.734375,00002.724609,00003.251953,00002.919922,00002.656250,-00000.405273,-00000.073242,-00000.561523,-00000.058594,-00000.083008,-00000.034180
0000000000716,00002.753906,00002.592773,00002.231445,00003.134766,00002.709961,00002.729492,00002.734375,00003.247070,00002.924805,00002.661133,-00000.400391,-00000.073242,-00000.561523,-00000.058594,-00000.083008,-00000.034180
0000000000717,00002.758789,00002.592773,00002.231445,00003.139648,00002.705078,00002.734375,00002.729492,00003.251953,00002.924805,00002.656250,-00000.405273,-00000.073242,-00000.561523,-00000.058594,-00000.083008,-00000.034180
0000000000718,00002.758789,00002.592773,00002.231445,00003.134766,00002.714844,00002.734375,00002.734375,00003.251953,00002.919922,00002.666016,-00000.405273,-00000.073242,-00000.566406,-00000.058594,-00000.087891,-00000.034180
0000000000719,00002.763672,00002.587891,00002.236328,00003.139648,00002.709961,00002.739258,00002.729492,00003.256836,00002.919922,00002.666016,-00000.405273,-00000.073242,-00000.566406,-00000.058594,-00000.087891,-00000.029297
0000000000720,00002.753906,00002.597656,00002.226563,00003.139648,00002.709961,00002.729492,00002.734375,00003.251953,00002.924805,00002.661133,-00000.405273,-00000.073242,-00000.566406,-00000.058594,-00000.087891,-00000.029297
0000000000721,00002.753906,00002.592773,00002.226563,00003.139648,00002.705078,00002.734375,00002.729492,00003.251953,00002.924805,00002.661133,-00000.405273,-00000.073242,-00000.566406,-00000.058594,-00000.087891,-00000.029297
0000000000722,00002.758789,00002.592773,00002.226563,00003.134766,00002.705078,00002.734375,00002.729492,00003.251953,00002.919922,00002.661133,-00000.405273,-00000.073242,-00000.566406,-00000.058594,-00000.087891,-00000.034180
0000000000723,00002.758789,00002.587891,00002.236328,00003.129883,00002.709961,00002.734375,00002.729492,00003.256836,00002.919922,00002.661133,-00000.405273,-00000.073242,-00000.561523,-00000.058594,-00000.087891,-00000.034180
0000000000724,00002.758789,00002.592773,00002.226563,00003.134766,00002.705078,00002.734375,00002.729492,00003.251953,00002.915039,00002.656250,-00000.405273,-00000.073242,-00000.566406,-00000.058594,-00000.087891,-00000.034180
0000000000725,00002.753906,00002.592773,00002.226563,00003.134766,00002.705078,00002.734375,00002.729492,00003.251953,00002.919922,00002.661133,-00000.405273,-00000.073242,-00000.566406,-00000.063477,-00000.087891,-00000.034180
0000000000726,00002.758789,00002.587891,00002.231445,00003.134766,00002.705078,00002.734375,00002.724609,00003.256836,00002.919922,00002.661133,-00000.405273,-00000.073242,-00000.566406,-00000.058594,-00000.083008,-00000.034180
0000000000727,00002.758789,00002.587891,00002.231445,00003.129883,00002.705078,00002.734375,00002.724609,00003.256836,00002.919922,00002.661133,-00000.405273,-00000.073242,-00000.571289,-00000.063477,-00000.087891,-00000.034180
0000000000728,00002.753906,00002.587891,00002.226563,00003.129883,00002.705078,00002.734375,00002.729492,00003.247070,00002.924805,00002.661133,-00000.405273,-00000.073242,-00000.566406,-00000.063477,-00000.087891,-00000.034180
0000000000729,00002.749023,00002.592773,00002.226563,00003.134766,00002.705078,00002.729492,00002.729492,00003.247070,00002.919922,00002.661133,-00000.405273,-00000.073242,-00000.566406,-00000.058594,-00000.083008,-00000.034180
0000000000730,00002.763672,00002.587891,00002.231445,00003.139648,00002.705078,00002.734375,00002.729492,00003.256836,00002.919922,00002.666016,-00000.405273,-00000.073242,-00000.566406,-00000.058594,-00000.087891,-00000.034180
0000000000731,00002.753906,00002.592773,00002.226563,00003.134766,00002.705078,00002.734375,00002.729492,00003.247070,00002.919922,00002.661133,-00000.405273,-00000.073242,-00000.566406,-00000.058594,-00000.087891,-00000.034180
0000000000732,00002.753906,00002.587891,00002.231445,00003.129883,00002.709961,00002.729492,00002.729492,00003.251953,00002.919922,00002.666016,-00000.405273,-00000.073242,-00000.566406,-00000.058594,-00000.087891,-00000.034180
0000000000733,00002.753906,00002.592773,00002.226563,00003.129883,00002.700195,00002.734375,00002.724609,00003.247070,00002.919922,00002.656250,-00000.405273,-00000.073242,-00000.566406,-00000.058594,-00000.087891,-00000.034180
0000000000734,00002.758789,00002.592773,00002.231445,00003.134766,00002.709961,00002.734375,00002.729492,00003.251953,00002.919922,00002.656250,-00000.405273,-00000.073242,-00000.566406,-00000.058594,-00000.087891,-00000.034180
0000000000735,00002.753906,00002.592773,00002.226563,00003.129883,00002.709961,00002.729492,00002.734375,00003.251953,00002.919922,00002.661133,-00000.405273,-00000.078125,-00000.566406,-00000.063477,-00000.087891,-00000.034180
0000000000736,00002.753906,00002.592773,00002.226563,00003.134766,00002.709961,00002.729492,00002.729492,00003.247070,00002.919922,00002.656250,-00000.410156,-00000.078125,-00000.571289,-00000.063477,-00000.092773,-00000.029297
0000000000737,00002.758789,00002.592773,00002.226563,00003.134766,00002.705078,00002.739258,00002.729492,00003.251953,00002.919922,00002.661133,-00000.405273,-00000.078125,-00000.571289,-00000.063477,-00000.087891,-00000.029297
0000000000738,00002.758789,00002.583008,00002.231445,00003.129883,00002.705078,00002.734375,00002.724609,00003.251953,00002.915039,00002.656250,-00000.405273,-00000.078125,-00000.571289,-00000.063477,-00000.087891,-00000.034180
0000000000739,00002.753906,00002.592773,00002.231445,00003.129883,00002.714844,00002.729492,00002.734375,00003.251953,00002.919922,00002.661133,-00000.405273,-00000.073242,-00000.566406,-00000.063477,-00000.083008,-00000.034180
0000000000740,00002.758789,00002.592773,00002.226563,00003.134766,00002.705078,00002.734375,00002.729492,00003.251953,00002.919922,00002.661133,-00000.405273,-00000.078125,-00000.566406,-00000.063477,-00000.083008,-00000.034180
0000000000741,00002.753906,00002.592773,00002.231445,00003.129883,00002.709961,00002.729492,00002.729492,00003.251953,00002.919922,00002.661133,-00000.405273,-00000.073242,-00000.571289,-00000.063477,-00000.083008,-00000.034180
0000000000742,00002.758789,00002.587891,00002.231445,00003.129883,00002.709961,00002.729492,00002.729492,00003.251953,00002.915039,00002.661133,-00000.410156,-00000.078125,-00000.571289,-00000.063477,-00000.083008,-00000.029297
0000000000743,00002.749023,00002.592773,00002.226563,00003.134766,00002.709961,00002.734375,00002.729492,00003.247070,00002.919922,00002.656250,-00000.410156,-00000.078125,-00000.571289,-00000.063477,-00000.087891,-00000.034180
0000000000744,00002.753906,00002.592773,00002.226563,00003.129883,00002.709961,00002.729492,00002.734375,00003.251953,00002.919922,00002.661133,-00000.410156,-00000.078125,-00000.571289,-00000.063477,-00000.083008,-00000.029297
0000000000745,00002.758789,00002.587891,00002.226563,00003.134766,00002.705078,00002.734375,00002.724609,00003.251953,00002.919922,00002.661133,-00000.410156,-00000.078125,-00000.571289,-00000.063477,-00000.083008,-00000.029297
0000000000746,00002.753906,00002.592773,00002.231445,00003.129883,00002.709961,00002.729492,00002.729492,00003.247070,00002.919922,00002.661133,-00000.410156,-00000.078125,-00000.571289,-00000.063477,-00000.083008,-00000.034180
0000000000747,00002.758789,00002.587891,00002.231445,00003.129883,00002.709961,00002.729492,00002.724609,00003.251953,00002.915039,00002.661133,-00000.410156,-00000.078125,-00000.571289,-00000.063477,-00000.083008,-00000.034180
0000000000748,00002.758789,00002.592773,00002.231445,00003.139648,00002.709961,00002.739258,00002.734375,00003.256836,00002.919922,00002.661133,-00000.405273,-00000.078125,-00000.571289,-00000.063477,-00000.083008,-00000.034180
0000000000749,00002.758789,00002.592773,00002.231445,00003.129883,00002.709961,00002.729492,00002.729492,00003.251953,00002.919922,00002.661133,-00000.405273,-00000.078125,-00000.571289,-00000.063477,-00000.083008,-00000.034180
0000000000750,00002.758789,00002.587891,00002.226563,00003.134766,00002.709961,00002.734375,00002.729492,00003.251953,00002.915039,00002.661133,-00000.410156,-00000.078125,-00000.566406,-00000.063477,-00000.083008,-00000.029297
0000000000751,00002.758789,00002.592773,00002.231445,00003.134766,00002.714844,00002.734375,00002.734375,00003.256836,00002.919922,00002.666016,-00000.410156,-00000.078125,-00000.571289,-00000.063477,-00000.087891,-00000.029297
0000000000752,00002.753906,00002.592773,00002.231445,00003.129883,00002.714844,00002.724609,00002.729492,00003.251953,00002.919922,00002.661133,-00000.405273,-00000.078125,-00000.571289,-00000.063477,-00000.087891,-00000.029297
0000000000753,00002.763672,00002.587891,00002.231445,00003.134766,00002.709961,00002.734375,00002.729492,00003.256836,00002.919922,00002.666016,-00000.405273,-00000.078125,-00000.571289,-00000.063477,-00000.087891,-00000.029297
0000000000754,00002.763672,00002.592773,00002.231445,00003.134766,00002.709961,00002.734375,00002.729492,00003.256836,00002.919922,00002.661133,-00000.405273,-00000.078125,-00000.571289,-00000.063477,-00000.087891,-00000.034180
0000000000755,00002.758789,00002.587891,00002.231445,00003.129883,00002.714844,00002.734375,00002.734375,00003.256836,00002.919922,00002.666016,-00000.405273,-00000.078125,-00000.571289,-00000.063477,-00000.087891,-00000.034180
0000000000756,00002.758789,00002.587891,00002.226563,00003.134766,00002.705078,00002.734375,00002.729492,00003.251953,00002.924805,00002.656250,-00000.410156,-00000.078125,-00000.571289,-00000.063477,-00000.087891,-00000.034180
0000000000757,00002.763672,00002.592773,00002.231445,00003.139648,00002.709961,00002.739258,00002.729492,00003.251953,00002.919922,00002.661133,-00000.410156,-00000.078125,-00000.576172,-00000.068359,-00000.087891,-00000.034180
0000000000758,00002.758789,00002.597656,00002.231445,00003.129883,00002.714844,00002.729492,00002.734375,00003.251953,00002.919922,00002.666016,-00000.410156,-00000.083008,-00000.576172,-00000.068359,-00000.092773,-00000.029297
0000000000759,00002.758789,00002.592773,00002.231445,00003.139648,00002.709961,00002.734375,00002.729492,00003.251953,00002.924805,00002.661133,-00000.410156,-00000.083008,-00000.571289,-00000.068359,-00000.097656,-00000.029297
0000000000760,00002.763672,00002.592773,00002.231445,00003.139648,00002.709961,00002.734375,00002.729492,00003.256836,00002.919922,00002.666016,-00000.410156,-00000.078125,-00000.571289,-00000.068359,-00000.092773,-00000.034180
0000000000761,00002.758789,00002.592773,00002.226563,00003.139648,00002.709961,00002.734375,00002.729492,00003.251953,00002.919922,00002.661133,-00000.410156,-00000.078125,-00000.576172,-00000.068359,-00000.087891,-00000.034180
0000000000762,00002.758789,00002.592773,00002.231445,00003.134766,00002.709961,00002.734375,00002.729492,00003.251953,00002.929688,00002.666016,-00000.405273,-00000.078125,-00000.571289,-00000.068359,-00000.092773,-00000.034180
0000000000763,00002.758789,00002.592773,00002.231445,00003.139648,00002.709961,00002.734375,00002.729492,00003.251953,00002.924805,00002.666016,-00000.410156,-00000.078125,-00000.576172,-00000.068359,-00000.092773,-00000.034180
0000000000764,00002.758789,00002.587891,00002.231445,00003.129883,00002.709961,00002.734375,00002.724609,00003.256836,00002.919922,00002.666016,-00000.410156,-00000.078125,-00000.576172,-00000.068359,-00000.087891,-00000.034180
0000000000765,00002.758789,00002.592773,00002.231445,00003.134766,00002.705078,00002.734375,00002.724609,00003.251953,00002.919922,00002.661133,-00000.410156,-00000.078125,-00000.576172,-00000.068359,-00000.092773,-00000.034180
0000000000766,00002.758789,00002.597656,00002.231445,00003.139648,00002.714844,00002.739258,00002.734375,00003.256836,00002.929688,00002.666016,-00000.410156,-00000.078125,-00000.576172,-00000.068359,-00000.097656,-00000.034180
0000000000767,00002.758789,00002.592773,00002.231445,00003.139648,00002.709961,00002.739258,00002.734375,00003.251953,00002.924805,00002.661133,-00000.410156,-00000.083008,-00000.576172,-00000.073242,-00000.097656,-00000.034180
0000000000768,00002.763672,00002.597656,00002.231445,00003.139648,00002.709961,00002.734375,00002.729492,00003.251953,00002.924805,00002.661133,-00000.410156,-00000.083008,-00000.576172,-00000.073242,-00000.092773,-00000.029297
0000000000769,00002.763672,00002.592773,00002.236328,00003.134766,00002.719727,00002.734375,00002.734375,00003.256836,00002.919922,00002.670898,-00000.410156,-00000.083008,-00000.581055,-00000.073242,-00000.092773,-00000.034180
0000000000770,00002.768555,00002.592773,00002.236328,00003.134766,00002.714844,00002.734375,00002.729492,00003.251953,00002.919922,00002.666016,-00000.410156,-00000.083008,-00000.581055,-00000.073242,-00000.092773,-00000.034180
0000000000771,00002.758789,00002.592773,00002.236328,00003.129883,00002.714844,00002.729492,00002.734375,00003.256836,00002.919922,00002.670898,-00000.410156,-00000.078125,-00000.576172,-00000.068359,-00000.097656,-00000.029297
0000000000772,00002.758789,00002.597656,00002.231445,00003.134766,00002.714844,00002.729492,00002.734375,00003.247070,00002.919922,00002.666016,-00000.405273,-00000.078125,-00000.576172,-00000.068359,-00000.092773,-00000.034180
0000000000773,00002.758789,00002.597656,00002.236328,00003.139648,00002.709961,00002.739258,00002.729492,00003.256836,00002.924805,00002.666016,-00000.410156,-00000.078125,-00000.576172,-00000.073242,-00000.097656,-00000.034180
0000000000774,00002.758789,00002.597656,00002.231445,00003.134766,00002.709961,00002.734375,00002.729492,00003.247070,00002.924805,00002.661133,-00000.410156,-00000.083008,-00000.581055,-00000.068359,-00000.097656,-00000.029297
0000000000775,00002.758789,00002.592773,00002.236328,00003.134766,00002.719727,00002.734375,00002.734375,00003.256836,00002.919922,00002.670898,-00000.410156,-00000.083008,-00000.576172,-00000.073242,-00000.097656,-00000.034180
0000000000776,00002.758789,00002.597656,00002.236328,00003.139648,00002.714844,00002.734375,00002.734375,00003.251953,00002.924805,00002.666016,-00000.410156,-00000.078125,-00000.576172,-00000.068359,-00000.097656,-00000.034180
0000000000777,00002.763672,00002.592773,00002.231445,00003.139648,00002.709961,00002.734375,00002.729492,00003.251953,00002.919922,00002.661133,-00000.410156,-00000.078125,-00000.576172,-00000.068359,-00000.097656,-00000.029297
0000000000778,00002.768555,00002.597656,00002.231445,00003.139648,00002.709961,00002.739258,00002.729492,00003.256836,00002.919922,00002.666016,-00000.405273,-00000.078125,-00000.571289,-00000.068359,-00000.097656,-00000.034180
0000000000779,00002.763672,00002.587891,00002.236328,00003.134766,00002.709961,00002.734375,00002.724609,00003.256836,00002.919922,00002.661133,-00000.405273,-00000.078125,-00000.571289,-00000.068359,-00000.097656,-00000.034180
0000000000780,00002.758789,00002.597656,00002.231445,00003.134766,00002.714844,00002.729492,00002.734375,00003.251953,00002.924805,00002.666016,-00000.410156,-00000.078125,-00000.571289,-00000.068359,-00000.097656,-00000.034180
0000000000781,00002.763672,00002.592773,00002.231445,00003.129883,00002.705078,00002.734375,00002.724609,00003.247070,00002.915039,00002.656250,-00000.405273,-00000.078125,-00000.571289,-00000.068359,-00000.097656,-00000.029297
0000000000782,00002.763672,00002.587891,00002.231445,00003.129883,00002.714844,00002.734375,00002.729492,00003.251953,00002.919922,00002.666016,-00000.410156,-00000.078125,-00000.576172,-00000.068359,-00000.097656,-00000.029297
0000000000783,00002.758789,00002.597656,00002.231445,00003.134766,00002.714844,00002.734375,00002.734375,00003.251953,00002.924805,00002.661133,-00000.405273,-00000.078125,-00000.571289,-00000.068359,-00000.102539,-00000.034180
0000000000784,00002.758789,00002.592773,00002.231445,00003.139648,00002.709961,00002.739258,00002.729492,00003.251953,00002.924805,00002.661133,-00000.405273,-00000.078125,-00000.571289,-00000.068359,-00000.097656,-00000.034180
0000000000785,00002.763672,00002.587891,00002.231445,00003.129883,00002.709961,00002.734375,00002.729492,00003.251953,00002.919922,00002.666016,-00000.410156,-00000.078125,-00000.571289,-00000.068359,-00000.097656,-00000.029297
0000000000786,00002.753906,00002.592773,00002.226563,00003.134766,00002.709961,00002.734375,00002.724609,00003.251953,00002.919922,00002.656250,-00000.410156,-00000.078125,-00000.571289,-00000.068359,-00000.092773,-00000.029297
0000000000787,00002.758789,00002.592773,00002.226563,00003.134766,00002.709961,00002.729492,00002.734375,00003.251953,00002.924805,00002.661133,-00000.405273,-00000.078125,-00000.571289,-00000.068359,-00000.092773,-00000.029297
0000000000788,00002.758789,00002.592773,00002.231445,00003.129883,00002.714844,00002.729492,00002.729492,00003.251953,00002.919922,00002.666016,-00000.405273,-00000.078125,-00000.571289,-00000.063477,-00000.092773,-00000.029297
0000000000789,00002.758789,00002.592773,00002.231445,00003.129883,00002.709961,00002.729492,00002.729492,00003.251953,00002.915039,00002.666016,-00000.405273,-00000.078125,-00000.571289,-00000.063477,-00000.092773,-00000.029297
0000000000790,00002.758789,00002.597656,00002.231445,00003.134766,00002.714844,00002.729492,00002.734375,00003.251953,00002.919922,00002.661133,-00000.405273,-00000.078125,-00000.571289,-00000.063477,-00000.092773,-00000.034180
0000000000791,00002.763672,00002.592773,00002.231445,00003.134766,00002.709961,00002.734375,00002.729492,00003.256836,00002.919922,00002.666016,-00000.405273,-00000.078125,-00000.566406,-00000.063477,-00000.092773,-00000.029297
0000000000792,00002.758789,00002.592773,00002.231445,00003.134766,00002.714844,00002.729492,00002.729492,00003.251953,00002.919922,00002.666016,-00000.405273,-00000.073242,-00000.571289,-00000.063477,-00000.092773,-00000.029297
0000000000793,00002.758789,00002.597656,00002.231445,00003.134766,00002.714844,00002.729492,00002.734375,00003.251953,00002.924805,00002.666016,-00000.405273,-00000.073242,-00000.571289,-00000.063477,-00000.092773,-00000.034180
0000000000794,00002.763672,00002.592773,00002.236328,00003.134766,00002.709961,00002.734375,00002.724609,00003.256836,00002.919922,00002.661133,-00000.405273,-00000.073242,-00000.566406,-00000.063477,-00000.092773,-00000.029297
0000000000795,00002.763672,00002.592773,00002.236328,00003.134766,00002.714844,00002.734375,00002.729492,00003.256836,00002.919922,00002.666016,-00000.400391,-00000.073242,-00000.566406,-00000.058594,-00000.092773,-00000.029297
0000000000796,00002.758789,00002.587891,00002.231445,00003.134766,00002.705078,00002.734375,00002.729492,00003.256836,00002.919922,00002.661133,-00000.400391,-00000.073242,-00000.561523,-00000.063477,-00000.087891,-00000.029297
0000000000797,00002.758789,00002.592773,00002.226563,00003.134766,00002.705078,00002.734375,00002.724609,00003.251953,00002.919922,00002.661133,-00000.405273,-00000.073242,-00000.566406,-00000.063477,-00000.087891,-00000.034180
0000000000798,00002.758789,00002.592773,00002.236328,00003.129883,00002.714844,00002.729492,00002.729492,00003.251953,00002.919922,00002.666016,-00000.405273,-00000.073242,-00000.566406,-00000.063477,-00000.092773,-00000.029297
0000000000799,00002.758789,00002.587891,00002.231445,00003.129883,00002.709961,00002.729492,00002.729492,00003.251953,00002.915039,00002.661133,-00000.405273,-00000.073242,-00000.566406,-00000.063477,-00000.087891,-00000.029297
0000000000800,00002.758789,00002.597656,00002.231445,00003.134766,00002.709961,00002.734375,00002.729492,00003.251953,00002.924805,00002.661133,-00000.405273,-00000.073242,-00000.566406,-00000.063477,-00000.092773,-00000.029297
0000000000801,00002.758789,00002.597656,00002.231445,00003.134766,00002.709961,00002.734375,00002.729492,00003.251953,00002.919922,00002.661133,-00000.405273,-00000.073242,-00000.566406,-00000.063477,-00000.092773,-00000.029297
0000000000802,00002.758789,00002.587891,00002.231445,00003.129883,00002.705078,00002.729492,00002.724609,00003.251953,00002.915039,00002.661133,-00000.405273,-00000.073242,-00000.566406,-00000.058594,-00000.087891,-00000.029297
0000000000803,00002.763672,00002.587891,00002.231445,00003.129883,00002.705078,00002.734375,00002.724609,00003.251953,00002.915039,00002.661133,-00000.400391,-00000.073242,-00000.561523,-00000.058594,-00000.087891,-00000.029297
0000000000804,00002.758789,00002.592773,00002.231445,00003.134766,00002.714844,00002.729492,00002.729492,00003.251953,00002.924805,00002.661133,-00000.400391,-00000.073242,-00000.561523,-00000.058594,-00000.087891,-00000.029297
0000000000805,00002.763672,00002.592773,00002.231445,00003.134766,00002.705078,00002.734375,00002.729492,00003.251953,00002.919922,00002.661133,-00000.405273,-00000.073242,-00000.561523,-00000.058594,-00000.092773,-00000.029297
0000000000806,00002.753906,00002.597656,00002.231445,00003.134766,00002.709961,00002.729492,00002.729492,00003.247070,00002.919922,00002.661133,-00000.405273,-00000.073242,-00000.566406,-00000.058594,-00000.097656,-00000.029297
0000000000807,00002.758789,00002.592773,00002.231445,00003.129883,00002.714844,00002.729492,00002.729492,00003.251953,00002.915039,00002.666016,-00000.405273,-00000.073242,-00000.566406,-00000.063477,-00000.097656,-00000.029297
0000000000808,00002.763672,00002.587891,00002.231445,00003.134766,00002.709961,00002.729492,00002.729492,00003.251953,00002.915039,00002.666016,-00000.410156,-00000.073242,-00000.571289,-00000.063477,-00000.102539,-00000.029297
0000000000809,00002.763672,00002.592773,00002.236328,00003.134766,00002.714844,00002.734375,00002.729492,00003.256836,00002.919922,00002.666016,-00000.405273,-00000.073242,-00000.566406,-00000.063477,-00000.097656,-00000.024414
0000000000810,00002.758789,00002.587891,00002.231445,00003.129883,00002.714844,00002.729492,00002.729492,00003.251953,00002.919922,00002.666016,-00000.405273,-00000.073242,-00000.566406,-00000.058594,-00000.097656,-00000.029297
0000000000811,00002.763672,00002.587891,00002.236328,00003.134766,00002.709961,00002.734375,00002.729492,00003.251953,00002.919922,00002.666016,-00000.405273,-00000.073242,-00000.561523,-00000.058594,-00000.092773,-00000.029297
0000000000812,00002.758789,00002.592773,00002.231445,00003.134766,00002.714844,00002.729492,00002.729492,00003.256836,00002.919922,00002.666016,-00000.405273,-00000.073242,-00000.561523,-00000.058594,-00000.092773,-00000.029297
0000000000813,00002.758789,00002.597656,00002.231445,00003.139648,00002.709961,00002.734375,00002.729492,00003.247070,00002.924805,00002.661133,-00000.405273,-00000.073242,-00000.566406,-00000.058594,-00000.092773,-00000.029297
0000000000814,00002.763672,00002.592773,00002.236328,00003.139648,00002.709961,00002.734375,00002.729492,00003.256836,00002.919922,00002.661133,-00000.405273,-00000.073242,-00000.566406,-00000.063477,-00000.092773,-00000.029297
0000000000815,00002.758789,00002.597656,00002.231445,00003.139648,00002.709961,00002.734375,00002.729492,00003.247070,00002.924805,00002.656250,-00000.405273,-00000.073242,-00000.566406,-00000.063477,-00000.097656,-00000.029297
0000000000816,00002.763672,00002.592773,00002.236328,00003.129883,00002.714844,00002.734375,00002.729492,00003.251953,00002.919922,00002.661133,-00000.405273,-00000.073242,-00000.566406,-00000.058594,-00000.097656,-00000.024414
0000000000817,00002.763672,00002.592773,00002.236328,00003.134766,00002.709961,00002.734375,00002.729492,00003.256836,00002.915039,00002.666016,-00000.405273,-00000.073242,-00000.566406,-00000.058594,-00000.092773,-00000.029297
0000000000818,00002.763672,00002.592773,00002.236328,00003.134766,00002.709961,00002.734375,00002.729492,00003.256836,00002.919922,00002.661133,-00000.405273,-00000.073242,-00000.566406,-00000.058594,-00000.092773,-00000.029297
0000000000819,00002.763672,00002.592773,00002.231445,00003.134766,00002.709961,00002.734375,00002.729492,00003.256836,00002.919922,00002.661133,-00000.405273,-00000.073242,-00000.566406,-00000.058594,-00000.092773,-00000.024414
0000000000820,00002.763672,00002.592773,00002.236328,00003.134766,00002.714844,00002.734375,00002.729492,00003.256836,00002.919922,00002.661133,-00000.405273,-00000.073242,-00000.561523,-00000.058594,-00000.087891,-00000.029297
0000000000821,00002.763672,00002.592773,00002.236328,00003.134766,00002.714844,00002.734375,00002.729492,00003.251953,00002.919922,00002.666016,-00000.400391,-00000.073242,-00000.561523,-00000.058594,-00000.087891,-00000.029297
0000000000822,00002.758789,00002.592773,00002.236328,00003.134766,00002.714844,00002.734375,00002.729492,00003.251953,00002.919922,00002.666016,-00000.405273,-00000.068359,-00000.561523,-00000.058594,-00000.087891,-00000.029297
0000000000823,00002.758789,00002.597656,00002.231445,00003.134766,00002.709961,00002.729492,00002.734375,00003.251953,00002.924805,00002.661133,-00000.405273,-00000.068359,-00000.561523,-00000.058594,-00000.087891,-00000.029297
0000000000824,00002.763672,00002.592773,00002.236328,00003.129883,00002.714844,00002.734375,00002.729492,00003.256836,00002.919922,00002.666016,-00000.405273,-00000.073242,-00000.561523,-00000.058594,-00000.087891,-00000.029297
0000000000825,00002.758789,00002.592773,00002.231445,00003.129883,00002.714844,00002.729492,00002.729492,00003.251953,00002.919922,00002.661133,-00000.405273,-00000.073242,-00000.566406,-00000.058594,-00000.092773,-00000.029297
0000000000826,00002.758789,00002.592773,00002.226563,00003.134766,00002.705078,00002.729492,00002.729492,00003.247070,00002.919922,00002.656250,-00000.405273,-00000.073242,-00000.566406,-00000.058594,-00000.087891,-00000.024414
0000000000827,00002.758789,00002.597656,00002.231445,00003.134766,00002.709961,00002.729492,00002.729492,00003.251953,00002.924805,00002.661133,-00000.405273,-00000.073242,-00000.561523,-00000.058594,-00000.087891,-00000.029297
0000000000828,00002.753906,00002.592773,00002.231445,00003.134766,00002.709961,00002.734375,00002.729492,00003.247070,00002.919922,00002.656250,-00000.405273,-00000.073242,-00000.561523,-00000.058594,-00000.087891,-00000.024414
0000000000829,00002.758789,00002.587891,00002.231445,00003.129883,00002.709961,00002.734375,00002.724609,00003.251953,00002.915039,00002.661133,-00000.405273,-00000.068359,-00000.561523,-00000.058594,-00000.087891,-00000.029297
0000000000830,00002.763672,00002.592773,00002.231445,00003.134766,00002.705078,00002.734375,00002.729492,00003.247070,00002.915039,00002.661133,-00000.405273,-00000.068359,-00000.561523,-00000.058594,-00000.087891,-00000.029297
0000000000831,00002.758789,00002.592773,00002.231445,00003.134766,00002.705078,00002.734375,00002.729492,00003.247070,00002.915039,00002.661133,-00000.405273,-00000.068359,-00000.561523,-00000.058594,-00000.087891,-00000.029297
0000000000832,00002.763672,00002.587891,00002.231445,00003.134766,00002.709961,00002.729492,00002.724609,00003.251953,00002.915039,00002.661133,-00000.405273,-00000.068359,-00000.561523,-00000.058594,-00000.087891,-00000.029297
0000000000833,00002.758789,00002.597656,00002.231445,00003.139648,00002.714844,00002.724609,00002.734375,00003.247070,00002.919922,00002.661133,-00000.405273,-00000.068359,-00000.561523,-00000.058594,-00000.087891,-00000.029297
0000000000834,00002.758789,00002.592773,00002.231445,00003.139648,00002.709961,00002.729492,00002.729492,00003.251953,00002.915039,00002.661133,-00000.405273,-00000.073242,-00000.561523,-00000.058594,-00000.087891,-00000.029297
0000000000835,00002.758789,00002.592773,00002.236328,00003.134766,00002.709961,00002.724609,00002.729492,00003.251953,00002.915039,00002.666016,-00000.405273,-00000.073242,-00000.561523,-00000.058594,-00000.092773,-00000.024414
0000000000836,00002.758789,00002.592773,00002.231445,00003.129883,00002.714844,00002.724609,00002.729492,00003.251953,00002.915039,00002.661133,-00000.400391,-00000.068359,-00000.561523,-00000.053711,-00000.092773,-00000.024414
0000000000837,00002.758789,00002.592773,00002.226563,00003.139648,00002.709961,00002.729492,00002.729492,00003.247070,00002.919922,00002.656250,-00000.400391,-00000.068359,-00000.556641,-00000.053711,-00000.087891,-00000.024414
0000000000838,00002.758789,00002.592773,00002.231445,00003.139648,00002.705078,00002.729492,00002.729492,00003.247070,00002.915039,00002.661133,-00000.400391,-00000.068359,-00000.556641,-00000.053711,-00000.087891,-00000.024414
0000000000839,00002.753906,00002.592773,00002.231445,00003.129883,00002.714844,00002.724609,00002.729492,00003.247070,00002.915039,00002.661133,-00000.400391,-00000.068359,-00000.561523,-00000.053711,-00000.087891,-00000.029297
0000000000840,00002.758789,00002.592773,00002.231445,00003.139648,00002.705078,00002.729492,00002.729492,00003.251953,00002.919922,00002.656250,-00000.405273,-00000.068359,-00000.561523,-00000.053711,-00000.087891,-00000.024414
0000000000841,00002.758789,00002.587891,00002.231445,00003.129883,00002.709961,00002.724609,00002.729492,00003.251953,00002.910156,00002.666016,-00000.405273,-00000.068359,-00000.561523,-00000.058594,-00000.092773,-00000.024414
0000000000842,00002.758789,00002.592773,00002.231445,00003.129883,00002.714844,00002.724609,00002.729492,00003.251953,00002.915039,00002.661133,-00000.405273,-00000.073242,-00000.561523,-00000.058594,-00000.092773,-00000.029297
0000000000843,00002.758789,00002.597656,00002.231445,00003.134766,00002.714844,00002.724609,00002.734375,00003.251953,00002.915039,00002.661133,-00000.405273,-00000.068359,-00000.561523,-00000.058594,-00000.092773,-00000.024414
0000000000844,00002.758789,00002.592773,00002.226563,00003.139648,00002.709961,00002.729492,00002.729492,00003.247070,00002.915039,00002.661133,-00000.405273,-00000.073242,-00000.561523,-00000.053711,-00000.092773,-00000.024414
0000000000845,00002.753906,00002.592773,00002.231445,00003.134766,00002.709961,00002.729492,00002.729492,00003.242188,00002.919922,00002.656250,-00000.400391,-00000.068359,-00000.561523,-00000.058594,-00000.087891,-00000.024414
0000000000846,00002.758789,00002.587891,00002.231445,00003.134766,00002.709961,00002.724609,00002.724609,00003.247070,00002.915039,00002.661133,-00000.400391,-00000.068359,-00000.561523,-00000.053711,-00000.087891,-00000.024414
0000000000847,00002.753906,00002.597656,00002.226563,00003.134766,00002.709961,00002.724609,00002.729492,00003.247070,00002.915039,00002.661133,-00000.400391,-00000.068359,-00000.561523,-00000.058594,-00000.087891,-00000.024414
0000000000848,00002.753906,00002.587891,00002.231445,00003.129883,00002.709961,00002.724609,00002.729492,00003.247070,00002.910156,00002.661133,-00000.405273,-00000.068359,-00000.561523,-00000.053711,-00000.092773,-00000.024414
0000000000849,00002.758789,00002.587891,00002.231445,00003.129883,00002.709961,00002.724609,00002.729492,00003.247070,00002.910156,00002.661133,-00000.405273,-00000.073242,-00000.561523,-00000.058594,-00000.092773,-00000.029297
0000000000850,00002.758789,00002.597656,00002.226563,00003.139648,00002.709961,00002.724609,00002.729492,00003.247070,00002.919922,00002.661133,-00000.400391,-00000.073242,-00000.561523,-00000.058594,-00000.097656,-00000.024414
0000000000851,00002.758789,00002.587891,00002.231445,00003.129883,00002.709961,00002.724609,00002.724609,00003.247070,00002.915039,00002.661133,-00000.405273,-00000.073242,-00000.561523,-00000.058594,-00000.092773,-00000.024414
0000000000852,00002.758789,00002.592773,00002.231445,00003.134766,00002.709961,00002.729492,00002.724609,00003.251953,00002.915039,00002.661133,-00000.405273,-00000.068359,-00000.561523,-00000.053711,-00000.092773,-00000.024414
0000000000853,00002.758789,00002.597656,00002.226563,00003.139648,00002.709961,00002.724609,00002.729492,00003.242188,00002.915039,00002.656250,-00000.400391,-00000.068359,-00000.561523,-00000.058594,-00000.092773,-00000.024414
0000000000854,00002.758789,00002.587891,00002.231445,00003.134766,00002.705078,00002.724609,00002.724609,00003.247070,00002.910156,00002.661133,-00000.400391,-00000.068359,-00000.561523,-00000.053711,-00000.092773,-00000.024414
0000000000855,00002.753906,00002.592773,00002.231445,00003.134766,00002.714844,00002.724609,00002.729492,00003.251953,00002.915039,00002.666016,-00000.400391,-00000.068359,-00000.561523,-00000.053711,-00000.087891,-00000.024414
0000000000856,00002.753906,00002.597656,00002.231445,00003.134766,00002.709961,00002.724609,00002.734375,00003.247070,00002.915039,00002.661133,-00000.405273,-00000.068359,-00000.561523,-00000.058594,-00000.087891,-00000.024414
0000000000857,00002.758789,00002.597656,00002.226563,00003.139648,00002.705078,00002.729492,00002.729492,00003.247070,00002.919922,00002.661133,-00000.405273,-00000.068359,-00000.561523,-00000.058594,-00000.092773,-00000.024414
0000000000858,00002.758789,00002.597656,00002.231445,00003.139648,00002.709961,00002.729492,00002.729492,00003.251953,00002.915039,00002.661133,-00000.405273,-00000.068359,-00000.561523,-00000.058594,-00000.092773,-00000.024414
0000000000859,00002.763672,00002.592773,00002.236328,00003.134766,00002.709961,00002.729492,00002.724609,00003.251953,00002.915039,00002.666016,-00000.400391,-00000.073242,-00000.561523,-00000.053711,-00000.092773,-00000.024414
0000000000860,00002.753906,00002.592773,00002.231445,00003.134766,00002.709961,00002.724609,00002.734375,00003.251953,00002.919922,00002.661133,-00000.405273,-00000.073242,-00000.561523,-00000.058594,-00000.092773,-00000.024414
0000000000861,00002.753906,00002.592773,00002.226563,00003.134766,00002.705078,00002.729492,00002.724609,00003.251953,00002.915039,00002.661133,-00000.405273,-00000.068359,-00000.561523,-00000.058594,-00000.092773,-00000.024414
0000000000862,00002.763672,00002.592773,00002.236328,00003.139648,00002.719727,00002.729492,00002.734375,00003.256836,00002.919922,00002.666016,-00000.400391,-00000.068359,-00000.561523,-00000.058594,-00000.087891,-00000.024414
0000000000863,00002.763672,00002.592773,00002.231445,00003.134766,00002.705078,00002.729492,00002.724609,00003.251953,00002.919922,00002.661133,-00000.400391,-00000.068359,-00000.561523,-00000.053711,-00000.087891,-00000.024414
0000000000864,00002.753906,00002.592773,00002.231445,00003.129883,00002.709961,00002.719727,00002.729492,00003.247070,00002.915039,00002.661133,-00000.400391,-00000.068359,-00000.561523,-00000.058594,-00000.092773,-00000.024414
0000000000865,00002.763672,00002.587891,00002.231445,00003.129883,00002.709961,00002.724609,00002.724609,00003.251953,00002.910156,00002.661133,-00000.400391,-00000.068359,-00000.561523,-00000.058594,-00000.087891,-00000.029297
0000000000866,00002.758789,00002.592773,00002.231445,00003.129883,00002.714844,00002.724609,00002.729492,00003.251953,00002.915039,00002.661133,-00000.400391,-00000.068359,-00000.561523,-00000.053711,-00000.092773,-00000.024414
0000000000867,00002.758789,00002.592773,00002.231445,00003.134766,00002.709961,00002.729492,00002.724609,00003.251953,00002.915039,00002.661133,-00000.400391,-00000.068359,-00000.561523,-00000.058594,-00000.092773,-00000.024414
0000000000868,00002.758789,00002.597656,00002.231445,00003.139648,00002.709961,00002.724609,00002.729492,00003.251953,00002.919922,00002.661133,-00000.400391,-00000.068359,-00000.561523,-00000.053711,-00000.092773,-00000.024414
0000000000869,00002.758789,00002.597656,00002.231445,00003.134766,00002.709961,00002.724609,00002.729492,00003.251953,00002.919922,00002.661133,-00000.400391,-00000.068359,-00000.561523,-00000.053711,-00000.092773,-00000.029297
0000000000870,00002.758789,00002.597656,00002.231445,00003.139648,00002.709961,00002.729492,00002.729492,00003.251953,00002.919922,00002.661133,-00000.400391,-00000.068359,-00000.561523,-00000.053711,-00000.087891,-00000.024414
0000000000871,00002.758789,00002.592773,00002.231445,00003.129883,00002.714844,00002.724609,00002.729492,00003.251953,00002.915039,00002.666016,-00000.400391,-00000.068359,-00000.556641,-00000.053711,-00000.087891,-00000.024414
0000000000872,00002.758789,00002.597656,00002.231445,00003.134766,00002.709961,00002.729492,00002.729492,00003.247070,00002.919922,00002.661133,-00000.400391,-00000.068359,-00000.556641,-00000.053711,-00000.083008,-00000.024414
0000000000873,00002.758789,00002.587891,00002.231445,00003.129883,00002.714844,00002.724609,00002.729492,00003.251953,00002.915039,00002.666016,-00000.400391,-00000.068359,-00000.561523,-00000.053711,-00000.083008,-00000.024414
0000000000874,00002.758789,00002.597656,00002.231445,00003.134766,00002.709961,00002.729492,00002.729492,00003.247070,00002.919922,00002.656250,-00000.400391,-00000.068359,-00000.561523,-00000.053711,-00000.083008,-00000.024414
0000000000875,00002.753906,00002.597656,00002.226563,00003.134766,00002.709961,00002.719727,00002.729492,00003.247070,00002.915039,00002.661133,-00000.400391,-00000.068359,-00000.556641,-00000.053711,-00000.087891,-00000.024414
0000000000876,00002.758789,00002.592773,00002.231445,00003.134766,00002.705078,00002.729492,00002.724609,00003.251953,00002.915039,00002.661133,-00000.400391,-00000.068359,-00000.556641,-00000.053711,-00000.087891,-00000.024414
0000000000877,00002.758789,00002.597656,00002.231445,00003.129883,00002.709961,00002.724609,00002.734375,00003.242188,00002.915039,00002.661133,-00000.400391,-00000.068359,-00000.556641,-00000.053711,-00000.087891,-00000.024414
0000000000878,00002.758789,00002.592773,00002.231445,00003.129883,00002.714844,00002.724609,00002.729492,00003.242188,00002.910156,00002.661133,-00000.400391,-00000.068359,-00000.556641,-00000.053711,-00000.087891,-00000.024414
0000000000879,00002.758789,00002.592773,00002.231445,00003.129883,00002.709961,00002.724609,00002.724609,00003.242188,00002.910156,00002.661133,-00000.400391,-00000.068359,-00000.561523,-00000.053711,-00000.083008,-00000.024414
0000000000880,00002.758789,00002.592773,00002.226563,00003.134766,00002.705078,00002.729492,00002.729492,00003.242188,00002.915039,00002.661133,-00000.400391,-00000.068359,-00000.556641,-00000.053711,-00000.083008,-00000.024414
0000000000881,00002.758789,00002.587891,00002.231445,00003.134766,00002.709961,00002.729492,00002.729492,00003.247070,00002.910156,00002.666016,-00000.400391,-00000.068359,-00000.556641,-00000.053711,-00000.083008,-00000.024414
0000000000882,00002.758789,00002.587891,00002.231445,00003.129883,00002.705078,00002.734375,00002.724609,00003.247070,00002.910156,00002.656250,-00000.400391,-00000.068359,-00000.556641,-00000.053711,-00000.083008,-00000.024414
0000000000883,00002.758789,00002.587891,00002.231445,00003.134766,00002.705078,00002.734375,00002.724609,00003.247070,00002.910156,00002.661133,-00000.400391,-00000.068359,-00000.561523,-00000.053711,-00000.087891,-00000.024414
0000000000884,00002.758789,00002.587891,00002.226563,00003.134766,00002.705078,00002.734375,00002.724609,00003.242188,00002.915039,00002.656250,-00000.400391,-00000.068359,-00000.561523,-00000.058594,-00000.087891,-00000.024414
0000000000885,00002.758789,00002.587891,00002.231445,00003.129883,00002.709961,00002.729492,00002.724609,00003.247070,00002.910156,00002.661133,-00000.400391,-00000.068359,-00000.561523,-00000.053711,-00000.087891,-00000.024414
0000000000886,00002.758789,00002.592773,00002.236328,00003.134766,00002.709961,00002.729492,00002.734375,00003.247070,00002.910156,00002.661133,-00000.405273,-00000.068359,-00000.561523,-00000.058594,-00000.087891,-00000.024414
0000000000887,00002.758789,00002.587891,00002.231445,00003.129883,00002.709961,00002.729492,00002.729492,00003.242188,00002.910156,00002.661133,-00000.400391,-00000.073242,-00000.561523,-00000.058594,-00000.087891,-00000.024414
0000000000888,00002.753906,00002.592773,00002.231445,00003.129883,00002.709961,00002.729492,00002.734375,00003.242188,00002.915039,00002.661133,-00000.400391,-00000.068359,-00000.561523,-00000.058594,-00000.092773,-00000.024414
0000000000889,00002.758789,00002.592773,00002.231445,00003.134766,00002.705078,00002.734375,00002.724609,00003.247070,00002.910156,00002.661133,-00000.400391,-00000.068359,-00000.566406,-00000.058594,-00000.092773,-00000.024414
0000000000890,00002.753906,00002.592773,00002.226563,00003.134766,00002.705078,00002.729492,00002.729492,00003.242188,00002.915039,00002.656250,-00000.405273,-00000.068359,-00000.561523,-00000.058594,-00000.087891,-00000.024414
0000000000891,00002.758789,00002.587891,00002.231445,00003.134766,00002.705078,00002.734375,00002.724609,00003.242188,00002.910156,00002.661133,-00000.405273,-00000.068359,-00000.566406,-00000.058594,-00000.087891,-00000.024414
0000000000892,00002.758789,00002.587891,00002.226563,00003.134766,00002.705078,00002.729492,00002.724609,00003.242188,00002.910156,00002.656250,-00000.405273,-00000.073242,-00000.566406,-00000.058594,-00000.097656,-00000.024414
0000000000893,00002.758789,00002.587891,00002.226563,00003.134766,00002.705078,00002.729492,00002.724609,00003.242188,00002.910156,00002.656250,-00000.405273,-00000.073242,-00000.566406,-00000.058594,-00000.097656,-00000.024414
0000000000894,00002.758789,00002.587891,00002.231445,00003.129883,00002.705078,00002.729492,00002.724609,00003.242188,00002.910156,00002.656250,-00000.405273,-00000.073242,-00000.566406,-00000.063477,-00000.097656,-00000.024414
0000000000895,00002.753906,00002.592773,00002.231445,00003.129883,00002.709961,00002.724609,00002.729492,00003.237305,00002.910156,00002.656250,-00000.405273,-00000.073242,-00000.571289,-00000.063477,-00000.097656,-00000.024414
0000000000896,00002.758789,00002.592773,00002.231445,00003.134766,00002.709961,00002.729492,00002.729492,00003.247070,00002.910156,00002.661133,-00000.405273,-00000.073242,-00000.566406,-00000.063477,-00000.097656,-00000.024414
0000000000897,00002.758789,00002.587891,00002.231445,00003.129883,00002.714844,00002.729492,00002.729492,00003.242188,00002.910156,00002.661133,-00000.405273,-00000.073242,-00000.566406,-00000.063477,-00000.092773,-00000.024414
0000000000898,00002.758789,00002.587891,00002.231445,00003.129883,00002.705078,00002.734375,00002.729492,00003.251953,00002.910156,00002.661133,-00000.400391,-00000.073242,-00000.566406,-00000.063477,-00000.087891,-00000.024414
0000000000899,00002.753906,00002.592773,00002.231445,00003.129883,00002.709961,00002.724609,00002.734375,00003.242188,00002.915039,00002.656250,-00000.400391,-00000.073242,-00000.566406,-00000.063477,-00000.087891,-00000.024414
0000000000900,00002.753906,00002.592773,00002.231445,00003.134766,00002.705078,00002.729492,00002.734375,00003.242188,00002.910156,00002.656250,-00000.405273,-00000.068359,-00000.566406,-00000.063477,-00000.087891,-00000.024414
0000000000901,00002.753906,00002.592773,00002.231445,00003.129883,00002.709961,00002.729492,00002.729492,00003.242188,00002.910156,00002.661133,-00000.405273,-00000.073242,-00000.566406,-00000.063477,-00000.092773,-00000.019531
0000000000902,00002.753906,00002.597656,00002.231445,00003.134766,00002.709961,00002.729492,00002.729492,00003.242188,00002.910156,00002.656250,-00000.405273,-00000.073242,-00000.566406,-00000.058594,-00000.097656,-00000.024414
0000000000903,00002.753906,00002.592773,00002.231445,00003.134766,00002.705078,00002.729492,00002.729492,00003.242188,00002.915039,00002.656250,-00000.405273,-00000.073242,-00000.566406,-00000.058594,-00000.097656,-00000.024414
0000000000904,00002.763672,00002.587891,00002.231445,00003.134766,00002.705078,00002.729492,00002.729492,00003.247070,00002.910156,00002.661133,-00000.400391,-00000.068359,-00000.566406,-00000.058594,-00000.097656,-00000.019531
0000000000905,00002.758789,00002.587891,00002.226563,00003.134766,00002.700195,00002.729492,00002.724609,00003.242188,00002.915039,00002.656250,-00000.400391,-00000.068359,-00000.561523,-00000.058594,-00000.097656,-00000.024414
0000000000906,00002.758789,00002.592773,00002.226563,00003.139648,00002.705078,00002.729492,00002.724609,00003.247070,00002.915039,00002.656250,-00000.400391,-00000.068359,-00000.561523,-00000.058594,-00000.092773,-00000.024414
0000000000907,00002.758789,00002.592773,00002.226563,00003.134766,00002.705078,00002.729492,00002.724609,00003.237305,00002.910156,00002.656250,-00000.400391,-00000.073242,-00000.561523,-00000.058594,-00000.092773,-00000.024414
0000000000908,00002.753906,00002.592773,00002.226563,00003.134766,00002.705078,00002.724609,00002.729492,00003.242188,00002.915039,00002.661133,-00000.400391,-00000.073242,-00000.566406,-00000.058594,-00000.097656,-00000.024414
0000000000909,00002.758789,00002.597656,00002.231445,00003.134766,00002.709961,00002.724609,00002.729492,00003.247070,00002.915039,00002.656250,-00000.400391,-00000.068359,-00000.561523,-00000.058594,-00000.087891,-00000.024414
0000000000910,00002.753906,00002.597656,00002.231445,00003.134766,00002.705078,00002.724609,00002.729492,00003.242188,00002.915039,00002.656250,-00000.395508,-00000.068359,-00000.561523,-00000.058594,-00000.083008,-00000.024414
0000000000911,00002.758789,00002.587891,00002.231445,00003.129883,00002.705078,00002.729492,00002.724609,00003.247070,00002.910156,00002.656250,-00000.400391,-00000.073242,-00000.556641,-00000.058594,-00000.087891,-00000.024414
0000000000912,00002.753906,00002.592773,00002.231445,00003.139648,00002.705078,00002.729492,00002.724609,00003.247070,00002.915039,00002.661133,-00000.400391,-00000.068359,-00000.556641,-00000.058594,-00000.087891,-00000.024414
0000000000913,00002.758789,00002.587891,00002.231445,00003.134766,00002.705078,00002.734375,00002.724609,00003.247070,00002.910156,00002.661133,-00000.400391,-00000.068359,-00000.561523,-00000.058594,-00000.087891,-00000.024414
0000000000914,00002.763672,00002.592773,00002.231445,00003.134766,00002.709961,00002.734375,00002.729492,00003.247070,00002.915039,00002.661133,-00000.400391,-00000.068359,-00000.561523,-00000.058594,-00000.092773,-00000.024414
0000000000915,00002.758789,00002.597656,00002.231445,00003.134766,00002.709961,00002.729492,00002.734375,00003.247070,00002.919922,00002.661133,-00000.400391,-00000.068359,-00000.561523,-00000.053711,-00000.087891,-00000.024414
0000000000916,00002.758789,00002.592773,00002.231445,00003.134766,00002.705078,00002.729492,00002.724609,00003.247070,00002.915039,00002.656250,-00000.395508,-00000.068359,-00000.561523,-00000.053711,-00000.083008,-00000.024414
0000000000917,00002.758789,00002.592773,00002.236328,00003.134766,00002.714844,00002.729492,00002.734375,00003.251953,00002.919922,00002.661133,-00000.400391,-00000.068359,-00000.561523,-00000.053711,-00000.083008,-00000.024414
0000000000918,00002.758789,00002.587891,00002.231445,00003.129883,00002.705078,00002.724609,00002.724609,00003.251953,00002.910156,00002.661133,-00000.400391,-00000.068359,-00000.561523,-00000.053711,-00000.083008,-00000.024414
0000000000919,00002.753906,00002.592773,00002.226563,00003.129883,00002.705078,00002.724609,00002.724609,00003.242188,00002.910156,00002.651367,-00000.400391,-00000.068359,-00000.561523,-00000.053711,-00000.083008,-00000.024414
0000000000920,00002.758789,00002.592773,00002.226563,00003.134766,00002.705078,00002.734375,00002.729492,00003.251953,00002.919922,00002.656250,-00000.395508,-00000.068359,-00000.556641,-00000.058594,-00000.083008,-00000.024414
0000000000921,00002.758789,00002.592773,00002.231445,00003.129883,00002.709961,00002.729492,00002.729492,00003.251953,00002.915039,00002.661133,-00000.400391,-00000.068359,-00000.561523,-00000.053711,-00000.083008,-00000.024414
0000000000922,00002.749023,00002.592773,00002.226563,00003.129883,00002.705078,00002.724609,00002.729492,00003.247070,00002.915039,00002.656250,-00000.400391,-00000.068359,-00000.556641,-00000.053711,-00000.083008,-00000.024414
0000000000923,00002.753906,00002.597656,00002.231445,00003.134766,00002.705078,00002.724609,00002.729492,00003.247070,00002.919922,00002.661133,-00000.400391,-00000.068359,-00000.561523,-00000.053711,-00000.083008,-00000.024414
0000000000924,00002.758789,00002.587891,00002.231445,00003.129883,00002.709961,00002.724609,00002.729492,00003.247070,00002.910156,00002.661133,-00000.400391,-00000.068359,-00000.561523,-00000.053711,-00000.083008,-00000.024414
0000000000925,00002.758789,00002.592773,00002.231445,00003.129883,00002.709961,00002.724609,00002.734375,00003.242188,00002.915039,00002.661133,-00000.400391,-00000.068359,-00000.561523,-00000.053711,-00000.083008,-00000.024414
0000000000926,00002.758789,00002.587891,00002.231445,00003.129883,00002.705078,00002.724609,00002.724609,00003.247070,00002.910156,00002.661133,-00000.400391,-00000.068359,-00000.561523,-00000.053711,-00000.083008,-00000.024414
0000000000927,00002.753906,00002.592773,00002.226563,00003.134766,00002.705078,00002.729492,00002.729492,00003.242188,00002.915039,00002.656250,-00000.400391,-00000.068359,-00000.561523,-00000.053711,-00000.083008,-00000.024414
0000000000928,00002.753906,00002.592773,00002.231445,00003.129883,00002.705078,00002.729492,00002.729492,00003.242188,00002.915039,00002.661133,-00000.400391,-00000.068359,-00000.561523,-00000.058594,-00000.083008,-00000.024414
0000000000929,00002.763672,00002.587891,00002.231445,00003.129883,00002.705078,00002.734375,00002.724609,00003.247070,00002.910156,00002.656250,-00000.400391,-00000.068359,-00000.561523,-00000.058594,-00000.083008,-00000.024414
0000000000930,00002.753906,00002.592773,00002.226563,00003.125000,00002.705078,00002.729492,00002.729492,00003.242188,00002.910156,00002.656250,-00000.400391,-00000.068359,-00000.561523,-00000.058594,-00000.083008,-00000.024414
0000000000931,00002.753906,00002.587891,00002.226563,00003.129883,00002.700195,00002.734375,00002.724609,00003.242188,00002.915039,00002.656250,-00000.400391,-00000.068359,-00000.561523,-00000.053711,-00000.083008,-00000.024414
0000000000932,00002.753906,00002.592773,00002.231445,00003.134766,00002.709961,00002.729492,00002.734375,00003.242188,00002.919922,00002.661133,-00000.400391,-00000.068359,-00000.556641,-00000.053711,-00000.083008,-00000.024414
0000000000933,00002.753906,00002.592773,00002.226563,00003.129883,00002.705078,00002.729492,00002.729492,00003.237305,00002.915039,00002.656250,-00000.400391,-00000.068359,-00000.561523,-00000.053711,-00000.083008,-00000.024414
0000000000934,00002.753906,00002.592773,00002.226563,00003.134766,00002.705078,00002.734375,00002.729492,00003.242188,00002.915039,00002.656250,-00000.400391,-00000.068359,-00000.561523,-00000.053711,-00000.083008,-00000.024414
0000000000935,00002.753906,00002.592773,00002.226563,00003.134766,00002.700195,00002.729492,00002.729492,00003.242188,00002.915039,00002.656250,-00000.400391,-00000.068359,-00000.561523,-00000.053711,-00000.083008,-00000.024414
0000000000936,00002.753906,00002.592773,00002.231445,00003.129883,00002.705078,00002.729492,00002.729492,00003.242188,00002.915039,00002.661133,-00000.400391,-00000.068359,-00000.561523,-00000.053711,-00000.083008,-00000.024414
0000000000937,00002.758789,00002.587891,00002.231445,00003.129883,00002.705078,00002.729492,00002.729492,00003.242188,00002.910156,00002.661133,-00000.400391,-00000.068359,-00000.556641,-00000.053711,-00000.083008,-00000.024414
0000000000938,00002.758789,00002.587891,00002.231445,00003.125000,00002.705078,00002.729492,00002.724609,00003.242188,00002.905273,00002.661133,-00000.400391,-00000.068359,-00000.556641,-00000.053711,-00000.078125,-00000.024414
0000000000939,00002.758789,00002.592773,00002.231445,00003.129883,00002.705078,00002.729492,00002.729492,00003.247070,00002.910156,00002.661133,-00000.395508,-00000.068359,-00000.561523,-00000.053711,-00000.078125,-00000.024414
0000000000940,00002.753906,00002.592773,00002.226563,00003.129883,00002.705078,00002.729492,00002.729492,00003.242188,00002.915039,00002.661133,-00000.400391,-00000.068359,-00000.556641,-00000.058594,-00000.083008,-00000.024414
0000000000941,00002.753906,00002.592773,00002.226563,00003.134766,00002.700195,00002.734375,00002.729492,00003.242188,00002.915039,00002.656250,-00000.400391,-00000.068359,-00000.561523,-00000.058594,-00000.083008,-00000.024414
0000000000942,00002.763672,00002.592773,00002.231445,00003.134766,00002.705078,00002.734375,00002.724609,00003.247070,00002.915039,00002.656250,-00000.400391,-00000.068359,-00000.561523,-00000.053711,-00000.087891,-00000.024414
0000000000943,00002.758789,00002.592773,00002.231445,00003.134766,00002.705078,00002.729492,00002.734375,00003.242188,00002.915039,00002.661133,-00000.400391,-00000.068359,-00000.556641,-00000.053711,-00000.083008,-00000.024414
0000000000944,00002.758789,00002.592773,00002.226563,00003.139648,00002.700195,00002.734375,00002.729492,00003.242188,00002.910156,00002.656250,-00000.400391,-00000.068359,-00000.561523,-00000.053711,-00000.083008,-00000.024414
0000000000945,00002.758789,00002.583008,00002.231445,00003.129883,00002.705078,00002.729492,00002.724609,00003.242188,00002.910156,00002.661133,-00000.400391,-00000.068359,-00000.561523,-00000.053711,-00000.083008,-00000.024414
0000000000946,00002.758789,00002.587891,00002.231445,00003.129883,00002.705078,00002.734375,00002.724609,00003.247070,00002.910156,00002.661133,-00000.400391,-00000.068359,-00000.561523,-00000.058594,-00000.083008,-00000.024414
0000000000947,00002.763672,00002.592773,00002.231445,00003.134766,00002.705078,00002.734375,00002.729492,00003.247070,00002.915039,00002.661133,-00000.400391,-00000.068359,-00000.561523,-00000.058594,-00000.087891,-00000.024414
0000000000948,00002.753906,00002.587891,00002.231445,00003.125000,00002.709961,00002.724609,00002.729492,00003.242188,00002.910156,00002.661133,-00000.400391,-00000.068359,-00000.561523,-00000.058594,-00000.087891,-00000.024414
0000000000949,00002.758789,00002.592773,00002.231445,00003.134766,00002.705078,00002.734375,00002.724609,00003.247070,00002.915039,00002.656250,-00000.400391,-00000.068359,-00000.561523,-00000.058594,-00000.087891,-00000.024414
0000000000950,00002.753906,00002.587891,00002.226563,00003.125000,00002.705078,00002.724609,00002.724609,00003.242188,00002.905273,00002.661133,-00000.400391,-00000.068359,-00000.561523,-00000.058594,-00000.087891,-00000.024414
0000000000951,00002.758789,00002.587891,00002.231445,00003.134766,00002.705078,00002.734375,00002.724609,00003.247070,00002.910156,00002.661133,-00000.400391,-00000.068359,-00000.561523,-00000.058594,-00000.087891,-00000.029297
0000000000952,00002.758789,00002.592773,00002.231445,00003.139648,00002.705078,00002.734375,00002.729492,00003.247070,00002.915039,00002.661133,-00000.400391,-00000.068359,-00000.561523,-00000.058594,-00000.092773,-00000.024414
0000000000953,00002.753906,00002.592773,00002.226563,00003.134766,00002.705078,00002.724609,00002.729492,00003.237305,00002.915039,00002.656250,-00000.400391,-00000.073242,-00000.561523,-00000.058594,-00000.092773,-00000.024414
0000000000954,00002.758789,00002.592773,00002.231445,00003.129883,00002.709961,00002.729492,00002.729492,00003.247070,00002.910156,00002.661133,-00000.400391,-00000.073242,-00000.566406,-00000.058594,-00000.092773,-00000.024414
0000000000955,00002.753906,00002.597656,00002.226563,00003.134766,00002.709961,00002.724609,00002.724609,00003.242188,00002.915039,00002.656250,-00000.400391,-00000.073242,-00000.566406,-00000.058594,-00000.092773,-00000.024414
0000000000956,00002.753906,00002.592773,00002.226563,00003.129883,00002.709961,00002.719727,00002.729492,00003.242188,00002.915039,00002.656250,-00000.400391,-00000.073242,-00000.561523,-00000.058594,-00000.097656,-00000.029297
0000000000957,00002.753906,00002.592773,00002.226563,00003.134766,00002.705078,00002.724609,00002.729492,00003.247070,00002.915039,00002.656250,-00000.405273,-00000.073242,-00000.566406,-00000.058594,-00000.097656,-00000.024414
0000000000958,00002.758789,00002.592773,00002.231445,00003.129883,00002.714844,00002.724609,00002.729492,00003.251953,00002.915039,00002.661133,-00000.400391,-00000.073242,-00000.566406,-00000.063477,-00000.097656,-00000.024414
0000000000959,00002.758789,00002.587891,00002.231445,00003.134766,00002.705078,00002.724609,00002.724609,00003.251953,00002.915039,00002.661133,-00000.400391,-00000.073242,-00000.566406,-00000.063477,-00000.097656,-00000.024414
0000000000960,00002.753906,00002.592773,00002.226563,00003.134766,00002.709961,00002.724609,00002.729492,00003.247070,00002.915039,00002.661133,-00000.400391,-00000.073242,-00000.566406,-00000.058594,-00000.092773,-00000.024414
0000000000961,00002.763672,00002.592773,00002.231445,00003.134766,00002.709961,00002.734375,00002.729492,00003.256836,00002.915039,00002.661133,-00000.400391,-00000.073242,-00000.566406,-00000.058594,-00000.092773,-00000.029297
0000000000962,00002.758789,00002.592773,00002.231445,00003.129883,00002.709961,00002.724609,00002.729492,00003.247070,00002.910156,00002.661133,-00000.405273,-00000.073242,-00000.566406,-00000.063477,-00000.092773,-00000.029297
0000000000963,00002.758789,00002.597656,00002.231445,00003.134766,00002.714844,00002.724609,00002.734375,00003.247070,00002.915039,00002.661133,-00000.405273,-00000.073242,-00000.566406,-00000.063477,-00000.097656,-00000.024414
0000000000964,00002.758789,00002.592773,00002.231445,00003.129883,00002.714844,00002.729492,00002.729492,00003.251953,00002.915039,00002.666016,-00000.405273,-00000.073242,-00000.566406,-00000.063477,-00000.092773,-00000.024414
0000000000965,00002.758789,00002.597656,00002.226563,00003.129883,00002.709961,00002.729492,00002.729492,00003.247070,00002.919922,00002.661133,-00000.405273,-00000.073242,-00000.566406,-00000.063477,-00000.092773,-00000.024414
0000000000966,00002.758789,00002.592773,00002.231445,00003.134766,00002.705078,00002.734375,00002.729492,00003.251953,00002.919922,00002.661133,-00000.405273,-00000.073242,-00000.566406,-00000.063477,-00000.092773,-00000.024414
0000000000967,00002.758789,00002.592773,00002.231445,00003.129883,00002.714844,00002.729492,00002.734375,00003.251953,00002.915039,00002.661133,-00000.400391,-00000.073242,-00000.566406,-00000.058594,-00000.087891,-00000.024414
0000000000968,00002.763672,00002.592773,00002.236328,00003.134766,00002.714844,00002.729492,00002.734375,00003.256836,00002.915039,00002.666016,-00000.405273,-00000.073242,-00000.566406,-00000.058594,-00000.083008,-00000.029297
0000000000969,00002.758789,00002.592773,00002.231445,00003.129883,00002.714844,00002.729492,00002.734375,00003.251953,00002.915039,00002.661133,-00000.405273,-00000.073242,-00000.566406,-00000.063477,-00000.083008,-00000.029297
0000000000970,00002.763672,00002.587891,00002.231445,00003.129883,00002.709961,00002.734375,00002.724609,00003.251953,00002.910156,00002.661133,-00000.405273,-00000.073242,-00000.566406,-00000.063477,-00000.087891,-00000.029297
0000000000971,00002.763672,00002.597656,00002.231445,00003.134766,00002.709961,00002.734375,00002.729492,00003.256836,00002.915039,00002.661133,-00000.405273,-00000.073242,-00000.566406,-00000.063477,-00000.087891,-00000.029297
0000000000972,00002.763672,00002.597656,00002.231445,00003.129883,00002.709961,00002.729492,00002.734375,00003.247070,00002.915039,00002.661133,-00000.405273,-00000.073242,-00000.566406,-00000.058594,-00000.087891,-00000.029297
0000000000973,00002.758789,00002.597656,00002.231445,00003.129883,00002.714844,00002.729492,00002.734375,00003.251953,00002.915039,00002.661133,-00000.405273,-00000.073242,-00000.561523,-00000.058594,-00000.087891,-00000.029297
0000000000974,00002.768555,00002.592773,00002.236328,00003.134766,00002.709961,00002.734375,00002.729492,00003.256836,00002.915039,00002.661133,-00000.405273,-00000.073242,-00000.566406,-00000.058594,-00000.087891,-00000.029297
0000000000975,00002.763672,00002.592773,00002.231445,00003.129883,00002.714844,00002.729492,00002.729492,00003.256836,00002.910156,00002.666016,-00000.410156,-00000.073242,-00000.566406,-00000.058594,-00000.087891,-00000.029297
0000000000976,00002.763672,00002.592773,00002.231445,00003.134766,00002.709961,00002.734375,00002.724609,00003.256836,00002.915039,00002.661133,-00000.405273,-00000.078125,-00000.566406,-00000.063477,-00000.087891,-00000.024414
0000000000977,00002.763672,00002.592773,00002.231445,00003.129883,00002.714844,00002.734375,00002.729492,00003.256836,00002.910156,00002.661133,-00000.410156,-00000.078125,-00000.571289,-00000.058594,-00000.087891,-00000.029297
0000000000978,00002.763672,00002.592773,00002.231445,00003.134766,00002.709961,00002.729492,00002.724609,00003.251953,00002.910156,00002.656250,-00000.415039,-00000.078125,-00000.576172,-00000.063477,-00000.087891,-00000.024414
0000000000979,00002.758789,00002.597656,00002.226563,00003.129883,00002.709961,00002.724609,00002.734375,00003.247070,00002.915039,00002.661133,-00000.415039,-00000.083008,-00000.576172,-00000.063477,-00000.092773,-00000.024414
0000000000980,00002.758789,00002.597656,00002.231445,00003.134766,00002.709961,00002.729492,00002.734375,00003.247070,00002.915039,00002.661133,-00000.415039,-00000.083008,-00000.576172,-00000.068359,-00000.087891,-00000.024414
0000000000981,00002.758789,00002.597656,00002.226563,00003.134766,00002.709961,00002.729492,00002.729492,00003.247070,00002.915039,00002.661133,-00000.415039,-00000.078125,-00000.576172,-00000.068359,-00000.083008,-00000.024414
0000000000982,00002.758789,00002.597656,00002.231445,00003.134766,00002.709961,00002.729492,00002.724609,00003.251953,00002.910156,00002.656250,-00000.410156,-00000.078125,-00000.571289,-00000.063477,-00000.073242,-00000.029297
0000000000983,00002.758789,00002.597656,00002.231445,00003.129883,00002.714844,00002.729492,00002.734375,00003.247070,00002.910156,00002.661133,-00000.410156,-00000.078125,-00000.566406,-00000.058594,-00000.068359,-00000.029297
0000000000984,00002.763672,00002.587891,00002.231445,00003.129883,00002.714844,00002.729492,00002.729492,00003.251953,00002.910156,00002.661133,-00000.410156,-00000.073242,-00000.561523,-00000.058594,-00000.058594,-00000.029297
0000000000985,00002.763672,00002.587891,00002.231445,00003.129883,00002.709961,00002.729492,00002.724609,00003.256836,00002.910156,00002.656250,-00000.410156,-00000.073242,-00000.566406,-00000.058594,-00000.058594,-00000.029297
0000000000986,00002.763672,00002.592773,00002.236328,00003.129883,00002.714844,00002.729492,00002.729492,00003.251953,00002.905273,00002.661133,-00000.415039,-00000.078125,-00000.566406,-00000.058594,-00000.058594,-00000.024414
0000000000987,00002.763672,00002.592773,00002.226563,00003.134766,00002.705078,00002.729492,00002.729492,00003.247070,00002.915039,00002.661133,-00000.415039,-00000.078125,-00000.571289,-00000.063477,-00000.063477,-00000.024414
0000000000988,00002.763672,00002.592773,00002.231445,00003.134766,00002.705078,00002.729492,00002.724609,00003.247070,00002.910156,00002.656250,-00000.410156,-00000.078125,-00000.571289,-00000.063477,-00000.068359,-00000.029297
0000000000989,00002.763672,00002.592773,00002.236328,00003.129883,00002.714844,00002.729492,00002.729492,00003.251953,00002.910156,00002.661133,-00000.410156,-00000.078125,-00000.571289,-00000.058594,-00000.073242,-00000.024414
0000000000990,00002.763672,00002.592773,00002.231445,00003.134766,00002.709961,00002.734375,00002.729492,00003.247070,00002.910156,00002.656250,-00000.410156,-00000.078125,-00000.566406,-00000.058594,-00000.073242,-00000.024414
0000000000991,00002.763672,00002.592773,00002.236328,00003.129883,00002.714844,00002.734375,00002.729492,00003.256836,00002.910156,00002.661133,-00000.410156,-00000.078125,-00000.566406,-00000.063477,-00000.073242,-00000.024414
0000000000992,00002.763672,00002.592773,00002.231445,00003.129883,00002.714844,00002.729492,00002.734375,00003.251953,00002.910156,00002.661133,-00000.410156,-00000.073242,-00000.566406,-00000.063477,-00000.073242,-00000.024414
0000000000993,00002.763672,00002.592773,00002.236328,00003.129883,00002.714844,00002.729492,00002.729492,00003.251953,00002.910156,00002.661133,-00000.410156,-00000.073242,-00000.566406,-00000.058594,-00000.073242,-00000.024414
0000000000994,00002.758789,00002.592773,00002.231445,00003.125000,00002.709961,00002.724609,00002.729492,00003.247070,00002.910156,00002.661133,-00000.410156,-00000.073242,-00000.566406,-00000.058594,-00000.068359,-00000.024414
0000000000995,00002.763672,00002.587891,00002.231445,00003.129883,00002.709961,00002.724609,00002.729492,00003.251953,00002.910156,00002.661133,-00000.405273,-00000.073242,-00000.561523,-00000.058594,-00000.068359,-00000.029297
0000000000996,00002.763672,00002.592773,00002.231445,00003.129883,00002.714844,00002.724609,00002.729492,00003.251953,00002.910156,00002.661133,-00000.405273,-00000.073242,-00000.566406,-00000.058594,-00000.063477,-00000.029297
0000000000997,00002.758789,00002.597656,00002.231445,00003.134766,00002.705078,00002.729492,00002.729492,00003.247070,00002.915039,00002.656250,-00000.405273,-00000.073242,-00000.566406,-00000.058594,-00000.063477,-00000.024414
0000000000998,00002.763672,00002.592773,00002.226563,00003.134766,00002.709961,00002.729492,00002.729492,00003.247070,00002.915039,00002.656250,-00000.405273,-00000.073242,-00000.566406,-00000.063477,-00000.068359,-00000.024414
0000000000999,00002.758789,00002.587891,00002.231445,00003.129883,00002.705078,00002.729492,00002.724609,00003.247070,00002.910156,00002.656250,-00000.405273,-00000.073242,-00000.566406,-00000.058594,-00000.068359,-00000.024414
0000000001000,00002.758789,00002.587891,00002.231445,00003.125000,00002.709961,00002.724609,00002.729492,00003.247070,00002.910156,00002.661133,-00000.405273,-00000.073242,-00000.561523,-00000.053711,-00000.073242,-00000.029297
0000000001001,00002.758789,00002.592773,00002.231445,00003.129883,00002.714844,00002.729492,00002.729492,00003.251953,00002.910156,00002.661133,-00000.405273,-00000.068359,-00000.561523,-00000.053711,-00000.073242,-00000.034180
0000000001002,00002.763672,00002.592773,00002.231445,00003.134766,00002.709961,00002.734375,00002.729492,00003.251953,00002.910156,00002.661133,-00000.405273,-00000.073242,-00000.561523,-00000.053711,-00000.078125,-00000.034180
0000000001003,00002.758789,00002.592773,00002.231445,00003.129883,00002.709961,00002.724609,00002.729492,00003.247070,00002.915039,00002.661133,-00000.405273,-00000.073242,-00000.566406,-00000.058594,-00000.078125,-00000.029297
0000000001004,00002.763672,00002.592773,00002.236328,00003.129883,00002.714844,00002.729492,00002.729492,00003.256836,00002.910156,00002.661133,-00000.410156,-00000.073242,-00000.566406,-00000.058594,-00000.083008,-00000.029297
0000000001005,00002.758789,00002.587891,00002.231445,00003.125000,00002.709961,00002.729492,00002.729492,00003.251953,00002.910156,00002.666016,-00000.405273,-00000.073242,-00000.566406,-00000.058594,-00000.083008,-00000.024414
0000000001006,00002.763672,00002.587891,00002.231445,00003.129883,00002.709961,00002.734375,00002.729492,00003.256836,00002.910156,00002.666016,-00000.410156,-00000.073242,-00000.566406,-00000.058594,-00000.083008,-00000.024414
0000000001007,00002.763672,00002.592773,00002.226563,00003.134766,00002.705078,00002.734375,00002.729492,00003.251953,00002.915039,00002.661133,-00000.405273,-00000.073242,-00000.566406,-00000.058594,-00000.083008,-00000.029297
0000000001008,00002.758789,00002.597656,00002.231445,00003.129883,00002.709961,00002.729492,00002.734375,00003.251953,00002.915039,00002.661133,-00000.410156,-00000.073242,-00000.566406,-00000.058594,-00000.083008,-00000.029297
0000000001009,00002.758789,00002.592773,00002.231445,00003.129883,00002.714844,00002.734375,00002.734375,00003.251953,00002.915039,00002.666016,-00000.410156,-00000.073242,-00000.566406,-00000.063477,-00000.083008,-00000.029297
0000000001010,00002.758789,00002.592773,00002.231445,00003.134766,00002.705078,00002.729492,00002.729492,00003.251953,00002.919922,00002.661133,-00000.410156,-00000.078125,-00000.566406,-00000.063477,-00000.083008,-00000.034180
0000000001011,00002.763672,00002.592773,00002.236328,00003.129883,00002.714844,00002.734375,00002.729492,00003.256836,00002.915039,00002.666016,-00000.410156,-00000.078125,-00000.566406,-00000.063477,-00000.083008,-00000.034180
0000000001012,00002.758789,00002.597656,00002.231445,00003.129883,00002.714844,00002.729492,00002.734375,00003.251953,00002.915039,00002.666016,-00000.410156,-00000.073242,-00000.566406,-00000.063477,-00000.087891,-00000.029297
0000000001013,00002.758789,00002.597656,00002.231445,00003.134766,00002.709961,00002.729492,00002.734375,00003.251953,00002.915039,00002.666016,-00000.405273,-00000.073242,-00000.566406,-00000.063477,-00000.087891,-00000.034180
0000000001014,00002.763672,00002.592773,00002.231445,00003.129883,00002.714844,00002.734375,00002.729492,00003.256836,00002.915039,00002.670898,-00000.405273,-00000.073242,-00000.566406,-00000.063477,-00000.092773,-00000.029297
0000000001015,00002.763672,00002.597656,00002.236328,00003.129883,00002.714844,00002.734375,00002.734375,00003.256836,00002.915039,00002.670898,-00000.405273,-00000.078125,-00000.566406,-00000.063477,-00000.092773,-00000.029297
0000000001016,00002.763672,00002.592773,00002.231445,00003.134766,00002.709961,00002.734375,00002.729492,00003.256836,00002.915039,00002.670898,-00000.410156,-00000.073242,-00000.566406,-00000.063477,-00000.092773,-00000.029297
0000000001017,00002.763672,00002.592773,00002.236328,00003.129883,00002.714844,00002.734375,00002.729492,00003.251953,00002.915039,00002.670898,-00000.405273,-00000.078125,-00000.566406,-00000.063477,-00000.097656,-00000.029297
0000000001018,00002.763672,00002.597656,00002.236328,00003.129883,00002.714844,00002.734375,00002.734375,00003.251953,00002.919922,00002.670898,-00000.405273,-00000.073242,-00000.566406,-00000.068359,-00000.102539,-00000.029297
0000000001019,00002.763672,00002.597656,00002.236328,00003.129883,00002.719727,00002.739258,00002.744141,00003.256836,00002.919922,00002.675781,-00000.405273,-00000.073242,-00000.566406,-00000.063477,-00000.107422,-00000.034180
0000000001020,00002.773438,00002.602539,00002.236328,00003.139648,00002.714844,00002.739258,00002.739258,00003.256836,00002.919922,00002.670898,-00000.405273,-00000.073242,-00000.566406,-00000.063477,-00000.107422,-00000.029297
0000000001021,00002.763672,00002.602539,00002.231445,00003.129883,00002.714844,00002.729492,00002.739258,00003.251953,00002.924805,00002.666016,-00000.405273,-00000.078125,-00000.571289,-00000.068359,-00000.112305,-00000.029297
0000000001022,00002.763672,00002.597656,00002.231445,00003.129883,00002.714844,00002.729492,00002.739258,00003.251953,00002.919922,00002.670898,-00000.405273,-00000.078125,-00000.571289,-00000.068359,-00000.117188,-00000.034180
0000000001023,00002.773438,00002.607422,00002.236328,00003.134766,00002.714844,00002.739258,00002.739258,00003.256836,00002.919922,00002.670898,-00000.405273,-00000.078125,-00000.571289,-00000.068359,-00000.117188,-00000.029297
0000000001024,00002.773438,00002.597656,00002.236328,00003.129883,00002.714844,00002.739258,00002.739258,00003.256836,00002.919922,00002.675781,-00000.400391,-00000.073242,-00000.571289,-00000.068359,-00000.122070,-00000.029297
0000000001025,00002.768555,00002.607422,00002.231445,00003.134766,00002.714844,00002.734375,00002.739258,00003.251953,00002.924805,00002.666016,-00000.400391,-00000.073242,-00000.566406,-00000.068359,-00000.117188,-00000.029297
0000000001026,00002.773438,00002.602539,00002.236328,00003.134766,00002.719727,00002.734375,00002.739258,00003.256836,00002.919922,00002.670898,-00000.400391,-00000.073242,-00000.566406,-00000.068359,-00000.117188,-00000.034180
0000000001027,00002.773438,00002.602539,00002.236328,00003.134766,00002.714844,00002.734375,00002.739258,00003.256836,00002.919922,00002.670898,-00000.400391,-00000.073242,-00000.566406,-00000.068359,-00000.122070,-00000.034180
0000000001028,00002.773438,00002.602539,00002.231445,00003.134766,00002.709961,00002.734375,00002.734375,00003.251953,00002.919922,00002.670898,-00000.400391,-00000.073242,-00000.566406,-00000.068359,-00000.126953,-00000.034180
0000000001029,00002.773438,00002.602539,00002.236328,00003.134766,00002.719727,00002.729492,00002.739258,00003.256836,00002.919922,00002.675781,-00000.395508,-00000.073242,-00000.566406,-00000.068359,-00000.126953,-00000.034180
0000000001030,00002.773438,00002.597656,00002.236328,00003.129883,00002.719727,00002.734375,00002.739258,00003.256836,00002.919922,00002.675781,-00000.395508,-00000.073242,-00000.566406,-00000.063477,-00000.126953,-00000.034180
0000000001031,00002.768555,00002.602539,00002.226563,00003.134766,00002.709961,00002.729492,00002.734375,00003.251953,00002.919922,00002.670898,-00000.395508,-00000.068359,-00000.561523,-00000.063477,-00000.126953,-00000.034180
0000000001032,00002.763672,00002.597656,00002.231445,00003.125000,00002.714844,00002.734375,00002.734375,00003.251953,00002.915039,00002.670898,-00000.395508,-00000.068359,-00000.561523,-00000.063477,-00000.126953,-00000.039063
