0000000002559,00001.993683,00001.193989,00001.547987,00001.922186,00002.381305,00002.137465,00002.305726,00002.714854,00001.925491,00001.345646,-00000.420850,-00000.063080,-00000.560916,-00000.042158,-00000.070563,-00000.166901
0000000002560,00001.992736,00001.193717,00001.546755,00001.918824,00002.381224,00002.137067,00002.305084,00002.714346,00001.924911,00001.345367,-00000.420769,-00000.063103,-00000.560948,-00000.041545,-00000.070045,-00000.166779
0000000002561,00001.992173,00001.193486,00001.545998,00001.916070,00002.380928,00002.136705,00002.304615,00002.714218,00001.924325,00001.345085,-00000.420670,-00000.063133,-00000.560950,-00000.041331,-00000.069866,-00000.166752
0000000002562,00001.991730,00001.193255,00001.544950,00001.913571,00002.380496,00002.136729,00002.304069,00002.713785,00001.923832,00001.344485,-00000.420964,-00000.063152,-00000.560977,-00000.041172,-00000.069788,-00000.166649
0000000002563,00001.991976,00001.193057,00001.543942,00001.911227,00002.380245,00002.136421,00002.303670,00002.713677,00001.923333,00001.344244,-00000.421605,-00000.063178,-00000.560979,-00000.040627,-00000.069635,-00000.166263
0000000002564,00001.992324,00001.192861,00001.543412,00001.909099,00002.379877,00002.136441,00002.303205,00002.713671,00001.922914,00001.344096,-00000.422218,-00000.063194,-00000.561002,-00000.040129,-00000.069931,-00000.165813
0000000002565,00001.992534,00001.192693,00001.542918,00001.907104,00002.380026,00002.136179,00002.302865,00002.713216,00001.922489,00001.343528,-00000.422401,-00000.063216,-00000.561004,-00000.039665,-00000.070164,-00000.165484
0000000002566,00001.992467,00001.192525,00001.542104,00001.905292,00002.379712,00002.135834,00002.302470,00002.712486,00001.922132,00001.343039,-00000.422560,-00000.063230,-00000.561024,-00000.039241,-00000.070054,-00000.164738
0000000002567,00001.993009,00001.192382,00001.541683,00001.903594,00002.379476,00002.135973,00002.302180,00002.712461,00001.921770,00001.342556,-00000.422716,-00000.063248,-00000.561025,-00000.038846,-00000.069889,-00000.164458
0000000002568,00001.993678,00001.192240,00001.541353,00001.902051,00002.379209,00002.136042,00002.301843,00002.712565,00001.921466,00001.342140,-00000.423214,-00000.063260,-00000.561042,-00000.038485,-00000.069795,-00000.164186
0000000002569,00001.993776,00001.192118,00001.540631,00001.900243,00002.379008,00002.135797,00002.301597,00002.712181,00001.921158,00001.341729,-00000.424073,-00000.062913,-00000.561043,-00000.038149,-00000.070017,-00000.163585
0000000002570,00001.993983,00001.191997,00001.539987,00001.898567,00002.378781,00002.135856,00002.301310,00002.711907,00001.920899,00001.341374,-00000.424859,-00000.062923,-00000.561057,-00000.037841,-00000.070300,-00000.162627
0000000002571,00001.994066,00001.192256,00001.539736,00001.897027,00002.378973,00002.136011,00002.301100,00002.711943,00001.920637,00001.341024,-00000.425953,-00000.062991,-00000.561058,-00000.037555,-00000.070490,-00000.161753
0000000002572,00001.993516,00001.192515,00001.539188,00001.895963,00002.378780,00002.136061,00002.301219,00002.711709,00001.920780,00001.340722,-00000.426623,-00000.062999,-00000.561070,-00000.036931,-00000.070730,-00000.160938
0000000002573,00001.993588,00001.193099,00001.538974,00001.896104,00002.378943,00002.135830,00002.301041,00002.711377,00001.920919,00001.340424,-00000.427191,-00000.063056,-00000.561071,-00000.036324,-00000.070529,-00000.160194
0000000002574,00001.994208,00001.193320,00001.538870,00001.896287,00002.378778,00002.135873,00002.300779,00002.711541,00001.920678,00001.340530,-00000.427761,-00000.063064,-00000.561082,-00000.035793,-00000.070371,-00000.159500
0000000002575,00001.994631,00001.193453,00001.538325,00001.896043,00002.378917,00002.135676,00002.300990,00002.711258,00001.920797,00001.340639,-00000.428970,-00000.063113,-00000.561082,-00000.035276,-00000.070562,-00000.158503
0000000002576,00001.994797,00001.194004,00001.537874,00001.895473,00002.379140,00002.135349,00002.301130,00002.710672,00001.920954,00001.340367,-00000.430544,-00000.063119,-00000.561091,-00000.035187,-00000.070790,-00000.157550
0000000002577,00001.994794,00001.194481,00001.537410,00001.895266,00002.379258,00002.135182,00002.301309,00002.710432,00001.921055,00001.340460,-00000.431936,-00000.063160,-00000.561092,-00000.035110,-00000.071316,-00000.156701
0000000002578,00001.994935,00001.194950,00001.537026,00001.895507,00002.379085,00002.135267,00002.301065,00002.710658,00001.921189,00001.340590,-00000.433639,-00000.062803,-00000.561462,-00000.035033,-00000.071873,-00000.155527
0000000002579,00001.994933,00001.195719,00001.536632,00001.896056,00002.379186,00002.135124,00002.301218,00002.710816,00001.921275,00001.340307,-00000.434824,-00000.062838,-00000.561463,-00000.034968,-00000.072321,-00000.154442
0000000002580,00001.995416,00001.196481,00001.536305,00001.896623,00002.379038,00002.135196,00002.301011,00002.711009,00001.921389,00001.340418,-00000.435911,-00000.062897,-00000.561415,-00000.034903,-00000.072795,-00000.153442
0000000002581,00001.995414,00001.197498,00001.535606,00001.897091,00002.379124,00002.135075,00002.301141,00002.711144,00001.921462,00001.340176,-00000.436920,-00000.062564,-00000.561416,-00000.034847,-00000.073176,-00000.152518
0000000002582,00001.995462,00001.198509,00001.534602,00001.897574,00002.379361,00002.134774,00002.301327,00002.711308,00001.921922,00001.339908,-00000.438207,-00000.062614,-00000.561375,-00000.034429,-00000.073580,-00000.151667
0000000002583,00001.995823,00001.199375,00001.533644,00001.898698,00002.379434,00002.135033,00002.301075,00002.711785,00001.922710,00001.340065,-00000.439429,-00000.062693,-00000.561375,-00000.034382,-00000.073904,-00000.150881
0000000002584,00001.996227,00001.200599,00001.532426,00001.900197,00002.379636,00002.135140,00002.301233,00002.711925,00001.923827,00001.340200,-00000.440888,-00000.062736,-00000.561341,-00000.034389,-00000.074248,-00000.150156
0000000002585,00001.996172,00001.201699,00001.530885,00001.901879,00002.379698,00002.135360,00002.302107,00002.711968,00001.925224,00001.340334,-00000.442291,-00000.062803,-00000.561341,-00000.034348,-00000.074524,-00000.149487
0000000002586,00001.996516,00001.202741,00001.529849,00001.903156,00002.379507,00002.135451,00002.302605,00002.712450,00001.925812,00001.340449,-00000.443171,-00000.062840,-00000.560949,-00000.033991,-00000.074454,-00000.148870
0000000002587,00001.996831,00001.203677,00001.528537,00001.904225,00002.379560,00002.135276,00002.302986,00002.712487,00001.926638,00001.340562,-00000.444002,-00000.062897,-00000.560587,-00000.033232,-00000.074326,-00000.148300
0000000002588,00001.996761,00001.204927,00001.527292,00001.906037,00002.379761,00002.134990,00002.303773,00002.712535,00001.927864,00001.340660,-00000.444751,-00000.062928,-00000.560253,-00000.032565,-00000.073904,-00000.147775
0000000002589,00001.997030,00001.206087,00001.526175,00001.908762,00002.379806,00002.135567,00002.304460,00002.712929,00001.929293,00001.341845,-00000.445096,-00000.062977,-00000.559944,-00000.031918,-00000.073069,-00000.146927
0000000002590,00001.997333,00001.207151,00001.525478,00001.911030,00002.379976,00002.135687,00002.304767,00002.713695,00001.930699,00001.343379,-00000.445370,-00000.063003,-00000.559660,-00000.031350,-00000.072347,-00000.145754
0000000002591,00001.997562,00001.208138,00001.524890,00001.913349,00002.380014,00002.135815,00002.305352,00002.714031,00001.931916,00001.344389,-00000.445664,-00000.063045,-00000.559397,-00000.030800,-00000.071636,-00000.145033
0000000002592,00001.997820,00001.209407,00001.524297,00001.915280,00002.380522,00002.135917,00002.306338,00002.714320,00001.933113,00001.344969,-00000.445897,-00000.063067,-00000.559155,-00000.029954,-00000.071021,-00000.144397
0000000002593,00001.998015,00001.210247,00001.523434,00001.917255,00002.380555,00002.136026,00002.306836,00002.714606,00001.934149,00001.344740,-00000.446510,-00000.063103,-00000.558932,-00000.029122,-00000.070417,-00000.143783
0000000002594,00001.998234,00001.210602,00001.522928,00001.918536,00002.380987,00002.136113,00002.306951,00002.715215,00001.934805,00001.345597,-00000.447072,-00000.063122,-00000.558726,-00000.028765,-00000.069893,-00000.143242
0000000002595,00001.998400,00001.210955,00001.522193,00001.919491,00002.381015,00002.136206,00002.307375,00002.715095,00001.935324,00001.345401,-00000.447594,-00000.063152,-00000.558535,-00000.028057,-00000.069378,-00000.142719
0000000002596,00001.998224,00001.211256,00001.521038,00001.918768,00002.381021,00002.135917,00002.307472,00002.714888,00001.935157,00001.344680,-00000.447346,-00000.063168,-00000.558360,-00000.027390,-00000.068933,-00000.142258
0000000002597,00001.996914,00001.211194,00001.520049,00001.916315,00002.380681,00002.135996,00002.306745,00002.714786,00001.934148,00001.344876,-00000.446702,-00000.063194,-00000.558198,-00000.026787,-00000.068132,-00000.141813
0000000002598,00001.995313,00001.211088,00001.519065,00001.913523,00002.380323,00002.136112,00002.305739,00002.714610,00001.932917,00001.345350,-00000.446129,-00000.063208,-00000.558049,-00000.026219,-00000.067389,-00000.141421
0000000002599,00001.993473,00001.210672,00001.517861,00001.910347,00002.379672,00002.135817,00002.305120,00002.714161,00001.931695,00001.346243,-00000.445580,-00000.062867,-00000.557911,-00000.025706,-00000.066707,-00000.141042
0000000002600,00001.991747,00001.209856,00001.517024,00001.907244,00002.379004,00002.135554,00002.304264,00002.713648,00001.930648,00001.346647,-00000.445092,-00000.062516,-00000.557784,-00000.025223,-00000.066438,-00000.140708
0000000002601,00001.989817,00001.209502,00001.516361,00001.904178,00002.378812,00002.134939,00002.304100,00002.713265,00001.929607,00001.347044,-00000.444625,-00000.062588,-00000.557666,-00000.024423,-00000.066583,-00000.140022
0000000002602,00001.988348,00001.208807,00001.515648,00001.901537,00002.378244,00002.134352,00002.303371,00002.712828,00001.928353,00001.347388,-00000.444210,-00000.062289,-00000.557558,-00000.024012,-00000.066717,-00000.139375
0000000002603,00001.987068,00001.208506,00001.515084,00001.898926,00002.378080,00002.133829,00002.302868,00002.712140,00001.927467,00001.347363,-00000.443812,-00000.062351,-00000.557458,-00000.024057,-00000.067204,-00000.138792
0000000002604,00001.985817,00001.208277,00001.514477,00001.897040,00002.377959,00002.133692,00002.302973,00002.711768,00001.927125,00001.347293,-00000.443096,-00000.062460,-00000.557366,-00000.024069,-00000.067317,-00000.138241
0000000002605,00001.985091,00001.207658,00001.513997,00001.895544,00002.377820,00002.133610,00002.302545,00002.711182,00001.926371,00001.346909,-00000.442032,-00000.062512,-00000.557281,-00000.024107,-00000.067006,-00000.137744
0000000002606,00001.984389,00001.207463,00001.513481,00001.894301,00002.377717,00002.133493,00002.302272,00002.710503,00001.926080,00001.346487,-00000.441059,-00000.062604,-00000.557202,-00000.024118,-00000.067103,-00000.137275
0000000002607,00001.984133,00001.206936,00001.513435,00001.893027,00002.377236,00002.133786,00002.301908,00002.710367,00001.925438,00001.346160,-00000.440516,-00000.062649,-00000.557130,-00000.024513,-00000.067563,-00000.136490
0000000002608,00001.983898,00001.206771,00001.512995,00001.891969,00002.377148,00002.133324,00002.302038,00002.710151,00001.925190,00001.345437,-00000.440051,-00000.062728,-00000.557426,-00000.024885,-00000.068008,-00000.135728
0000000002609,00001.983680,00001.207047,00001.512593,00001.890884,00002.377101,00002.133210,00002.301728,00002.710035,00001.925006,00001.344797,-00000.439588,-00000.062766,-00000.557727,-00000.025222,-00000.068400,-00000.135059
0000000002610,00001.983843,00001.206906,00001.512581,00001.889984,00002.377026,00002.133542,00002.301113,00002.710215,00001.924432,00001.344544,-00000.439192,-00000.062833,-00000.557979,-00000.025175,-00000.068416,-00000.134410
0000000002611,00001.984746,00001.207142,00001.512602,00001.889060,00002.376987,00002.133446,00002.300849,00002.710116,00001.924276,00001.343999,-00000.438799,-00000.062865,-00000.558235,-00000.025099,-00000.068750,-00000.133841
0000000002612,00001.985610,00001.207022,00001.512955,00001.888294,00002.376923,00002.133366,00002.300689,00002.709906,00001.924150,00001.343421,-00000.438461,-00000.062922,-00000.558450,-00000.025060,-00000.069127,-00000.133289
0000000002613,00001.986379,00001.206860,00001.513335,00001.887508,00002.376889,00002.133283,00002.300464,00002.710185,00001.924017,00001.343319,-00000.438126,-00000.062950,-00000.559031,-00000.024995,-00000.069411,-00000.132804
0000000002614,00001.987115,00001.206757,00001.513273,00001.887943,00002.376472,00002.133578,00002.300327,00002.710006,00001.923910,00001.342828,-00000.437839,-00000.062998,-00000.559214,-00000.024961,-00000.069731,-00000.132334
0000000002615,00001.987769,00001.206619,00001.513597,00001.888363,00002.376443,00002.133508,00002.300136,00002.710243,00001.923796,00001.342741,-00000.437191,-00000.063022,-00000.558983,-00000.024906,-00000.069610,-00000.132284
0000000002616,00001.988033,00001.206532,00001.513544,00001.889459,00002.376451,00002.133396,00002.300382,00002.710091,00001.923705,00001.342323,-00000.436584,-00000.063063,-00000.559138,-00000.025240,-00000.069521,-00000.132247
0000000002617,00001.988590,00001.206415,00001.513820,00001.890904,00002.376426,00002.133699,00002.300219,00002.709930,00001.923609,00001.341886,-00000.435670,-00000.063083,-00000.558942,-00000.025556,-00000.069417,-00000.132204
0000000002618,00001.989177,00001.206703,00001.514137,00001.892564,00002.376796,00002.133604,00002.300429,00002.709801,00001.923894,00001.341530,-00000.434790,-00000.063118,-00000.559074,-00000.026203,-00000.069341,-00000.132172
0000000002619,00001.989651,00001.206966,00001.514372,00001.894157,00002.376775,00002.133499,00002.300653,00002.709664,00001.923812,00001.341158,-00000.434012,-00000.063135,-00000.559269,-00000.026835,-00000.069616,-00000.131774
0000000002620,00001.990151,00001.206849,00001.514642,00001.895206,00002.377089,00002.133418,00002.300469,00002.709916,00001.923692,00001.340855,-00000.433626,-00000.063165,-00000.559382,-00000.027023,-00000.069914,-00000.131021
0000000002621,00001.990917,00001.206710,00001.515205,00001.896200,00002.377434,00002.133329,00002.300297,00002.710163,00001.923622,00001.340901,-00000.433326,-00000.063180,-00000.559548,-00000.027198,-00000.070148,-00000.130318
0000000002622,00001.991343,00001.206973,00001.515798,00001.897093,00002.377702,00002.133260,00002.300503,00002.710378,00001.923520,00001.340643,-00000.432997,-00000.063205,-00000.559644,-00000.027358,-00000.070401,-00000.130040
0000000002623,00001.991995,00001.206855,00001.515914,00001.898302,00002.377633,00002.133547,00002.300357,00002.710587,00001.923823,00001.340320,-00000.432379,-00000.062855,-00000.559786,-00000.027507,-00000.070601,-00000.129805
0000000002624,00001.992358,00001.206716,00001.516419,00001.899425,00002.377498,00002.133488,00002.300169,00002.710407,00001.923736,00001.340100,-00000.431736,-00000.062876,-00000.559868,-00000.027644,-00000.070817,-00000.129931
0000000002625,00001.992913,00001.206615,00001.516517,00001.900817,00002.377439,00002.133732,00002.300045,00002.710586,00001.924357,00001.339825,-00000.430847,-00000.062941,-00000.559988,-00000.028133,-00000.071349,-00000.130094
0000000002626,00001.993584,00001.206497,00001.516584,00001.902861,00002.377325,00002.134045,00002.299885,00002.710796,00001.925008,00001.339638,-00000.429938,-00000.062959,-00000.560420,-00000.028612,-00000.071895,-00000.130564
0000000002627,00001.994057,00001.206411,00001.517031,00001.904772,00002.377637,00002.133890,00002.299779,00002.710948,00001.925537,00001.339403,-00000.429181,-00000.063014,-00000.560523,-00000.029029,-00000.072712,-00000.130703
0000000002628,00001.994266,00001.206673,00001.517088,00001.906875,00002.377902,00002.134156,00002.300006,00002.711126,00001.926454,00001.339244,-00000.428406,-00000.063030,-00000.560891,-00000.029437,-00000.073540,-00000.130740
0000000002629,00001.994305,00001.206963,00001.517106,00001.908864,00002.377806,00002.134387,00002.299916,00002.711255,00001.926904,00001.339045,-00000.427762,-00000.063077,-00000.561341,-00000.029791,-00000.074234,-00000.130858
0000000002630,00001.994846,00001.207186,00001.517154,00001.910655,00002.378031,00002.134251,00002.300109,00002.711407,00001.927685,00001.338909,-00000.427465,-00000.063090,-00000.561655,-00000.029776,-00000.074939,-00000.131253
0000000002631,00001.995242,00001.207070,00001.517532,00001.912348,00002.378312,00002.134448,00002.300395,00002.711880,00001.928069,00001.338739,-00000.427280,-00000.063130,-00000.562038,-00000.029352,-00000.075531,-00000.131716
0000000002632,00001.995703,00001.207260,00001.517574,00001.913873,00002.378504,00002.134695,00002.300559,00002.712010,00001.928733,00001.338624,-00000.427027,-00000.063141,-00000.562304,-00000.028976,-00000.076493,-00000.132052
0000000002633,00001.996040,00001.207161,00001.517895,00001.914951,00002.378743,00002.134862,00002.300440,00002.712412,00001.929422,00001.338479,-00000.426869,-00000.063175,-00000.562631,-00000.028615,-00000.077360,-00000.132809
0000000002634,00001.996432,00001.207323,00001.518293,00001.916612,00002.379269,00002.135072,00002.300217,00002.712885,00001.929988,00001.338744,-00000.426654,-00000.063185,-00000.562858,-00000.028295,-00000.078179,-00000.133458
0000000002635,00001.996356,00001.207965,00001.518567,00001.918618,00002.379835,00002.135215,00002.300478,00002.712865,00001.930938,00001.338621,-00000.426520,-00000.063213,-00000.563136,-00000.027988,-00000.078554,-00000.134102
0000000002636,00001.996690,00001.208102,00001.518906,00001.920758,00002.379921,00002.135394,00002.300289,00002.713268,00001.931420,00001.338483,-00000.425974,-00000.063222,-00000.563692,-00000.027716,-00000.078889,-00000.134655
0000000002637,00001.996988,00001.208648,00001.519139,00001.923554,00002.380403,00002.135515,00002.300874,00002.713251,00001.932590,00001.338378,-00000.425497,-00000.063246,-00000.563928,-00000.027454,-00000.078845,-00000.135566
0000000002638,00001.997272,00001.209128,00001.519790,00001.925738,00002.380838,00002.135667,00002.301438,00002.713593,00001.933363,00001.338261,-00000.425032,-00000.063253,-00000.564039,-00000.026859,-00000.078768,-00000.136399
0000000002639,00001.997527,00001.209230,00001.520351,00001.927030,00002.380885,00002.135770,00002.301573,00002.713942,00001.933635,00001.338172,-00000.424626,-00000.063274,-00000.564240,-00000.026274,-00000.078730,-00000.137538
0000000002640,00001.997405,00001.209276,00001.520543,00001.927801,00002.380893,00002.135537,00002.301691,00002.713871,00001.934293,00001.338072,-00000.424230,-00000.063643,-00000.564334,-00000.025768,-00000.078302,-00000.138610
0000000002641,00001.997259,00001.209363,00001.520658,00001.927087,00002.380934,00002.135262,00002.301806,00002.713804,00001.934161,00001.337996,-00000.423884,-00000.063661,-00000.564505,-00000.025270,-00000.077907,-00000.139579
0000000002642,00001.997156,00001.209039,00001.520458,00001.924841,00002.380578,00002.135064,00002.301906,00002.713381,00001.933633,00001.338274,-00000.423548,-00000.063612,-00000.564586,-00000.024838,-00000.077905,-00000.140492
0000000002643,00001.996306,00001.208388,00001.520193,00001.921694,00002.380249,00002.134830,00002.301641,00002.712962,00001.932795,00001.339298,-00000.423253,-00000.063627,-00000.564731,-00000.024414,-00000.077569,-00000.141317
0000000002644,00001.995129,00001.207749,00001.520023,00001.917968,00002.379946,00002.134661,00002.301363,00002.712239,00001.931620,00001.340623,-00000.422966,-00000.063585,-00000.564800,-00000.024047,-00000.077204,-00000.142094
0000000002645,00001.994043,00001.206832,00001.519798,00001.914563,00002.379667,00002.134462,00002.300775,00002.711882,00001.930543,00001.341857,-00000.422353,-00000.063961,-00000.564924,-00000.023686,-00000.076555,-00000.142796
0000000002646,00001.992316,00001.205926,00001.519290,00001.911391,00002.379408,00002.134318,00002.300539,00002.711266,00001.929543,00001.342622,-00000.421746,-00000.064288,-00000.564982,-00000.023737,-00000.075882,-00000.143820
0000000002647,00001.991028,00001.204782,00001.518736,00001.908493,00002.379170,00002.134148,00002.300038,00002.710962,00001.928264,00001.343310,-00000.421224,-00000.064608,-00000.565088,-00000.023792,-00000.075330,-00000.144781
0000000002648,00001.990284,00001.204010,00001.518303,00001.906155,00002.378951,00002.134026,00002.299837,00002.710438,00001.927412,00001.343599,-00000.420707,-00000.064887,-00000.565137,-00000.023835,-00000.074757,-00000.145653
0000000002649,00001.989550,00001.203399,00001.517468,00001.904050,00002.378385,00002.133882,00002.299773,00002.709817,00001.926687,00001.343822,-00000.420625,-00000.064796,-00000.565227,-00000.023519,-00000.074649,-00000.146108
0000000002650,00001.988554,00001.202743,00001.517101,00001.901698,00002.378198,00002.133777,00002.299602,00002.709371,00001.925961,00001.344068,-00000.420911,-00000.064671,-00000.564906,-00000.023193,-00000.074524,-00000.146850
0000000002651,00001.987929,00001.202222,00001.517115,00001.899543,00002.378080,00002.134017,00002.299548,00002.709205,00001.925344,00001.344257,-00000.421204,-00000.064594,-00000.564620,-00000.022924,-00000.074070,-00000.147601
0000000002652,00001.987081,00001.201663,00001.516802,00001.897540,00002.377921,00002.133929,00002.299402,00002.708825,00001.924726,00001.344466,-00000.421448,-00000.064487,-00000.564347,-00000.022647,-00000.073601,-00000.148232
0000000002653,00001.986186,00001.201220,00001.516452,00001.895706,00002.377820,00002.133407,00002.299356,00002.707958,00001.924200,00001.344265,-00000.421697,-00000.064421,-00000.564104,-00000.022418,-00000.073214,-00000.148508
0000000002654,00001.985827,00001.200382,00001.516548,00001.894001,00002.377684,00002.133332,00002.299232,00002.707997,00001.923312,00001.344443,-00000.421904,-00000.064330,-00000.563871,-00000.021819,-00000.073177,-00000.148683
0000000002655,00001.986880,00001.200005,00001.516613,00001.892440,00002.377961,00002.133251,00002.299193,00002.707985,00001.922864,00001.343909,-00000.422117,-00000.064274,-00000.563664,-00000.021624,-00000.073211,-00000.149281
0000000002656,00001.987662,00001.200016,00001.516695,00001.891351,00002.378208,00002.133186,00002.299087,00002.708018,00001.922471,00001.343335,-00000.421568,-00000.064560,-00000.563466,-00000.021476,-00000.072817,-00000.150156
0000000002657,00001.988195,00001.200058,00001.516387,00001.891473,00002.378081,00002.133117,00002.299054,00002.707645,00001.922089,00001.342880,-00000.420660,-00000.064875,-00000.563652,-00000.021311,-00000.072483,-00000.151390
0000000002658,00001.988861,00001.200068,00001.516094,00001.891997,00002.377929,00002.133425,00002.298964,00002.707673,00001.921755,00001.342392,-00000.420193,-00000.065118,-00000.563846,-00000.021185,-00000.072147,-00000.152498
0000000002659,00001.989315,00001.200104,00001.515832,00001.892101,00002.377821,00002.133367,00002.298936,00002.707355,00001.921430,00001.342005,-00000.420146,-00000.065386,-00000.564005,-00000.020681,-00000.071863,-00000.153548
0000000002660,00001.989882,00001.200112,00001.515582,00001.891096,00002.378054,00002.133266,00002.298859,00002.707380,00001.921145,00001.341589,-00000.420110,-00000.065230,-00000.564170,-00000.020212,-00000.071577,-00000.154491
0000000002661,00001.990269,00001.199780,00001.515359,00001.890459,00002.377962,00002.133216,00002.298835,00002.707109,00001.920869,00001.341259,-00000.420433,-00000.065459,-00000.564305,-00000.019783,-00000.071698,-00000.155023
0000000002662,00001.991114,00001.199424,00001.515147,00001.889603,00002.377798,00002.133130,00002.298770,00002.707130,00001.920626,00001.340905,-00000.420766,-00000.065689,-00000.564446,-00000.019383,-00000.071817,-00000.155825
0000000002663,00001.991443,00001.199504,00001.514957,00001.888698,00002.378082,00002.133088,00002.299112,00002.706899,00001.920754,00001.340624,-00000.421041,-00000.065520,-00000.564561,-00000.019018,-00000.071557,-00000.156641
0000000002664,00001.991800,00001.199201,00001.515139,00001.888333,00002.377943,00002.133015,00002.299056,00002.706917,00001.920184,00001.340323,-00000.420961,-00000.065716,-00000.564681,-00000.018678,-00000.071659,-00000.157687
0000000002665,00001.992080,00001.198906,00001.515340,00001.888651,00002.378185,00002.132979,00002.298985,00002.707084,00001.919930,00001.340084,-00000.420470,-00000.065573,-00000.564779,-00000.018367,-00000.071438,-00000.159107
0000000002666,00001.992747,00001.198648,00001.515495,00001.889428,00002.378428,00002.132917,00002.299300,00002.707099,00001.919808,00001.339827,-00000.420402,-00000.065740,-00000.564518,-00000.018077,-00000.071162,-00000.160723
0000000002667,00001.992985,00001.198760,00001.515666,00001.890424,00002.378635,00002.133249,00002.299240,00002.707240,00001.919592,00001.339624,-00000.420346,-00000.065618,-00000.564239,-00000.017812,-00000.070973,-00000.162657
0000000002668,00001.993553,00001.198541,00001.515798,00001.891086,00002.378479,00002.133559,00002.299145,00002.707616,00001.919488,00001.339406,-00000.420651,-00000.065397,-00000.564017,-00000.017566,-00000.071101,-00000.164758
0000000002669,00001.993756,00001.198636,00001.515581,00001.891934,00002.378292,00002.133478,00002.299094,00002.707374,00001.919666,00001.339233,-00000.420967,-00000.065293,-00000.563779,-00000.016978,-00000.072029,-00000.167493
0000000002670,00001.993876,00001.198812,00001.515331,00001.893223,00002.378523,00002.133380,00002.299376,00002.707331,00001.919941,00001.339047,-00000.421226,-00000.065105,-00000.563590,-00000.016042,-00000.072863,-00000.170733
0000000002671,00001.994412,00001.198893,00001.515509,00001.895033,00002.378726,00002.133674,00002.299695,00002.707488,00001.920456,00001.338899,-00000.421495,-00000.065017,-00000.563024,-00000.015179,-00000.073653,-00000.174513
0000000002672,00001.995240,00001.199043,00001.515658,00001.897944,00002.378922,00002.133953,00002.299573,00002.708177,00001.921052,00001.338741,-00000.421353,-00000.065219,-00000.562864,-00000.014382,-00000.074001,-00000.179085
0000000002673,00001.995696,00001.199112,00001.515810,00001.900936,00002.379095,00002.134203,00002.299481,00002.708673,00001.921853,00001.338253,-00000.420856,-00000.065507,-00000.562745,-00000.014010,-00000.074310,-00000.183391
0000000002674,00001.996038,00001.199239,00001.515937,00001.903777,00002.379262,00002.134441,00002.299740,00002.708896,00001.923086,00001.338118,-00000.420736,-00000.065679,-00000.562245,-00000.013695,-00000.074606,-00000.187646
0000000002675,00001.996426,00001.199298,00001.515703,00001.906325,00002.379773,00002.134654,00002.300025,00002.709319,00001.924131,00001.337702,-00000.421038,-00000.065924,-00000.561782,-00000.013015,-00000.074870,-00000.191674
0000000002676,00001.997080,00001.199406,00001.515812,00001.909106,00002.379915,00002.134856,00002.299883,00002.709872,00001.925181,00001.337225,-00000.421298,-00000.065708,-00000.561356,-00000.012384,-00000.075484,-00000.195297
0000000002677,00001.997411,00001.199819,00001.515613,00001.912000,00002.379986,00002.135038,00002.300851,00002.710232,00001.926071,00001.336871,-00000.421193,-00000.065917,-00000.560962,-00000.011805,-00000.075346,-00000.198726
0000000002678,00001.997967,00001.200274,00001.515342,00001.915819,00002.380470,00002.135572,00002.301818,00002.710703,00001.926964,00001.336827,-00000.421052,-00000.066096,-00000.560599,-00000.011268,-00000.075144,-00000.202173
0000000002679,00001.998974,00001.200626,00001.515898,00001.920097,00002.381257,00002.136090,00002.302279,00002.711734,00001.927721,00001.336889,-00000.420599,-00000.066273,-00000.560263,-00000.011138,-00000.075026,-00000.205455
0000000002680,00001.999811,00001.201013,00001.516031,00001.924436,00002.381669,00002.136545,00002.303102,00002.712135,00001.928845,00001.336851,-00000.420116,-00000.066425,-00000.559955,-00000.011044,-00000.074491,-00000.208389
0000000002681,00002.000668,00001.201312,00001.516141,00001.928441,00002.382338,00002.136985,00002.304221,00002.712651,00001.929852,00001.336904,-00000.420094,-00000.066576,-00000.559669,-00000.010933,-00000.074390,-00000.210820
0000000002682,00002.001743,00001.201642,00001.516617,00001.932498,00002.382689,00002.137736,00002.304922,00002.713355,00001.930809,00001.336872,-00000.420408,-00000.066706,-00000.559407,-00000.010490,-00000.074661,-00000.212592
0000000002683,00002.002836,00001.201897,00001.517074,00001.936270,00002.382896,00002.138111,00002.305511,00002.714157,00001.931667,00001.337280,-00000.420752,-00000.066835,-00000.559163,-00000.010033,-00000.074575,-00000.213937
0000000002684,00002.003388,00001.202178,00001.517479,00001.939723,00002.383557,00002.138024,00002.306470,00002.714756,00001.932844,00001.337615,-00000.421019,-00000.066945,-00000.558940,-00000.009656,-00000.074442,-00000.215082
0000000002685,00002.004318,00001.202395,00001.517868,00001.944023,00002.383734,00002.138706,00002.306972,00002.715801,00001.933937,00001.337600,-00000.420949,-00000.067055,-00000.558732,-00000.009267,-00000.074007,-00000.216227
0000000002686,00002.004789,00001.202634,00001.518213,00001.946963,00002.383934,00002.138995,00002.307426,00002.716312,00001.934939,00001.337523,-00000.420814,-00000.067149,-00000.558542,-00000.008945,-00000.073531,-00000.217202
0000000002687,00002.005218,00001.202456,00001.518544,00001.949171,00002.384084,00002.139213,00002.307853,00002.717201,00001.935506,00001.337509,-00000.420392,-00000.067242,-00000.558366,-00000.008977,-00000.073160,-00000.218176
0000000002688,00002.005618,00001.202296,00001.518837,00001.949498,00002.384254,00002.139458,00002.308239,00002.717636,00001.935997,00001.337444,-00000.420277,-00000.067322,-00000.557841,-00000.009066,-00000.072755,-00000.218644
0000000002689,00002.005620,00001.201782,00001.518756,00001.948113,00002.384382,00002.139281,00002.308603,00002.717305,00001.935754,00001.338520,-00000.420280,-00000.067401,-00000.557328,-00000.009093,-00000.072802,-00000.218748
0000000002690,00002.005236,00001.201283,00001.518643,00001.946577,00002.384527,00002.138765,00002.308932,00002.716949,00001.935083,00001.339553,-00000.420545,-00000.067469,-00000.556881,-00000.009169,-00000.072820,-00000.218783
0000000002691,00002.004875,00001.200483,00001.518212,00001.943584,00002.384273,00002.138251,00002.308153,00002.716667,00001.934151,00001.340832,-00000.420910,-00000.067537,-00000.556444,-00000.009192,-00000.072860,-00000.218508
0000000002692,00002.004185,00001.199695,00001.517753,00001.940462,00002.383671,00002.138174,00002.307345,00002.716002,00001.933217,00001.341712,-00000.421136,-00000.067232,-00000.556064,-00000.009257,-00000.072876,-00000.218176
0000000002693,00002.003515,00001.198651,00001.517385,00001.937551,00002.383092,00002.137737,00002.307044,00002.715036,00001.932424,00001.342438,-00000.421084,-00000.066927,-00000.555692,-00000.009277,-00000.072910,-00000.217942
0000000002694,00002.003290,00001.197981,00001.516994,00001.934894,00002.382942,00002.137309,00002.306719,00002.714470,00001.931629,00001.343186,-00000.420913,-00000.067030,-00000.555369,-00000.009332,-00000.072560,-00000.217659
0000000002695,00002.003082,00001.197092,00001.516682,00001.932779,00002.382450,00002.137299,00002.306101,00002.714011,00001.930953,00001.343442,-00000.420869,-00000.067133,-00000.555415,-00000.009711,-00000.072226,-00000.217460
0000000002696,00002.002891,00001.196159,00001.516349,00001.930879,00002.381959,00002.137298,00002.305461,00002.713891,00001.930276,00001.343716,-00000.420724,-00000.067221,-00000.555139,-00000.010121,-00000.071929,-00000.216856
0000000002697,00002.002714,00001.195402,00001.516083,00001.928716,00002.381902,00002.137290,00002.304935,00002.713863,00001.929338,00001.343571,-00000.421049,-00000.066946,-00000.554816,-00000.010081,-00000.071644,-00000.215961
0000000002698,00002.002551,00001.194607,00001.516162,00001.926373,00002.381485,00002.136925,00002.304390,00002.713761,00001.928399,00001.343442,-00000.421288,-00000.066658,-00000.554581,-00000.010067,-00000.071754,-00000.215084
0000000002699,00002.002038,00001.194326,00001.515936,00001.924169,00002.381437,00002.136556,00002.304305,00002.713375,00001.927964,00001.343318,-00000.421928,-00000.066423,-00000.554306,-00000.010033,-00000.072238,-00000.214322
0000000002700,00002.001536,00001.194012,00001.515641,00001.922174,00002.381081,00002.136246,00002.304204,00002.712562,00001.927527,00001.342845,-00000.422494,-00000.066178,-00000.554106,-00000.010021,-00000.072331,-00000.213213
0000000002701,00002.001100,00001.193410,00001.515448,00001.920298,00002.381040,00002.135931,00002.303768,00002.712233,00001.926794,00001.342740,-00000.422676,-00000.065979,-00000.553872,-00000.010355,-00000.072380,-00000.212564
0000000002702,00002.000673,00001.193143,00001.515197,00001.918600,00002.381101,00002.135667,00002.303320,00002.711905,00001.926059,00001.342700,-00000.422795,-00000.066133,-00000.553702,-00000.010708,-00000.072459,-00000.211983
0000000002703,00002.000664,00001.193355,00001.515032,00001.917365,00002.380703,00002.135762,00002.302949,00002.711624,00001.925798,00001.342248,-00000.422950,-00000.065963,-00000.553502,-00000.010629,-00000.072501,-00000.211431
0000000002704,00002.000300,00001.193128,00001.514818,00001.915557,00002.380754,00002.135174,00002.302567,00002.711345,00001.925172,00001.341851,-00000.423414,-00000.065732,-00000.553358,-00000.010930,-00000.072931,-00000.210936
0000000002705,00002.000292,00001.192946,00001.514679,00001.914143,00002.380415,00002.135255,00002.302251,00002.711469,00001.924587,00001.341103,-00000.423909,-00000.065587,-00000.553551,-00000.010863,-00000.073329,-00000.210103
0000000002706,00002.000346,00001.193116,00001.514497,00001.913329,00002.380459,00002.135118,00002.302289,00002.711231,00001.924417,00001.340403,-00000.424304,-00000.065390,-00000.553790,-00000.010755,-00000.073695,-00000.209318
0000000002707,00002.000339,00001.193324,00001.514740,00001.912489,00002.380534,00002.134824,00002.302383,00002.711336,00001.924282,00001.340129,-00000.424725,-00000.065267,-00000.553954,-00000.010699,-00000.074034,-00000.208972
0000000002708,00002.000384,00001.193468,00001.514948,00001.911796,00002.380571,00002.134707,00002.302415,00002.711134,00001.924137,00001.339533,-00000.425062,-00000.065099,-00000.554158,-00000.010245,-00000.074346,-00000.208667
0000000002709,00002.000016,00001.193645,00001.514793,00001.911080,00002.380634,00002.134819,00002.302133,00002.710861,00001.924022,00001.338937,-00000.425420,-00000.064994,-00000.554298,-00000.009833,-00000.074635,-00000.208373
0000000002710,00002.000055,00001.193768,00001.514970,00001.910128,00002.380303,00002.135083,00002.301797,00002.710688,00001.923536,00001.338792,-00000.426069,-00000.065214,-00000.554472,-00000.009447,-00000.074538,-00000.207750
0000000002711,00001.999741,00001.193919,00001.515200,00001.909155,00002.380357,00002.134815,00002.301919,00002.710456,00001.923438,00001.338285,-00000.426737,-00000.065488,-00000.554591,-00000.009097,-00000.074420,-00000.207137
0000000002712,00001.999774,00001.194023,00001.515351,00001.908707,00002.380075,00002.135040,00002.301634,00002.710672,00001.923024,00001.338161,-00000.426927,-00000.065312,-00000.554739,-00000.008768,-00000.074700,-00000.206607
0000000002713,00001.999870,00001.194151,00001.515547,00001.908242,00002.379758,00002.135175,00002.301375,00002.710474,00001.922578,00001.337730,-00000.427496,-00000.065182,-00000.554477,-00000.008470,-00000.075326,-00000.205722
0000000002714,00001.999898,00001.194240,00001.515676,00001.908587,00002.379518,00002.135366,00002.301132,00002.710658,00001.922589,00001.337625,-00000.428020,-00000.065033,-00000.554240,-00000.008189,-00000.075927,-00000.204908
0000000002715,00001.999617,00001.194712,00001.515843,00001.908917,00002.379611,00002.135118,00002.301274,00002.710490,00001.922571,00001.337257,-00000.428504,-00000.064922,-00000.554018,-00000.007936,-00000.076097,-00000.204154
0000000002716,00001.999641,00001.195514,00001.515952,00001.909572,00002.379770,00002.134918,00002.301430,00002.710283,00001.922581,00001.336805,-00000.428951,-00000.064795,-00000.554179,-00000.007697,-00000.076246,-00000.203462
0000000002717,00001.999764,00001.195916,00001.516094,00001.909853,00002.379849,00002.135070,00002.301188,00002.710503,00001.922566,00001.336855,-00000.429363,-00000.064701,-00000.553989,-00000.007481,-00000.076391,-00000.202820
0000000002718,00001.999421,00001.196598,00001.516187,00001.910411,00002.379984,00002.134900,00002.301321,00002.710327,00001.922574,00001.336470,-00000.429743,-00000.064593,-00000.553764,-00000.006915,-00000.076518,-00000.202230
0000000002719,00001.999164,00001.197303,00001.516308,00001.910650,00002.380051,00002.134666,00002.301478,00002.710151,00001.922561,00001.336149,-00000.430094,-00000.064150,-00000.553602,-00000.006369,-00000.077004,-00000.201321
0000000002720,00001.999235,00001.197883,00001.516387,00001.911126,00002.379804,00002.134884,00002.301228,00002.710365,00001.922568,00001.335822,-00000.430417,-00000.063695,-00000.553410,-00000.005887,-00000.077837,-00000.200456
0000000002721,00001.999378,00001.198484,00001.516490,00001.912055,00002.379861,00002.135048,00002.301362,00002.710578,00001.922557,00001.335549,-00000.431079,-00000.063318,-00000.553636,-00000.005785,-00000.078614,-00000.199683
0000000002722,00001.999439,00001.199341,00001.516558,00001.912822,00002.380013,00002.135233,00002.301150,00002.710759,00001.922563,00001.335633,-00000.431717,-00000.063293,-00000.553835,-00000.005737,-00000.079324,-00000.198946
0000000002723,00001.999561,00001.200577,00001.516645,00001.913976,00002.380424,00002.135373,00002.301263,00002.710940,00001.923279,00001.335763,-00000.432643,-00000.062972,-00000.554027,-00000.005650,-00000.079622,-00000.198288
0000000002724,00001.999613,00001.201307,00001.516703,00001.914629,00002.380554,00002.135531,00002.301082,00002.711095,00001.923647,00001.335835,-00000.433186,-00000.062951,-00000.554196,-00000.005610,-00000.079863,-00000.197661
0000000002725,00001.999354,00001.202359,00001.516415,00001.915249,00002.380541,00002.135650,00002.301179,00002.710887,00001.924257,00001.335583,-00000.433612,-00000.063041,-00000.554360,-00000.005535,-00000.080117,-00000.197100
0000000002726,00001.999035,00001.202981,00001.516464,00001.915805,00002.380651,00002.135784,00002.301025,00002.711018,00001.924570,00001.335281,-00000.434074,-00000.063023,-00000.554867,-00000.005864,-00000.080322,-00000.196567
0000000002727,00001.999177,00001.203514,00001.516218,00001.917058,00002.380641,00002.135885,00002.300745,00002.711204,00001.925089,00001.335067,-00000.434436,-00000.063099,-00000.555006,-00000.006163,-00000.080539,-00000.196089
0000000002728,00001.998906,00001.204406,00001.515897,00001.918619,00002.380734,00002.135999,00002.300976,00002.711316,00001.926081,00001.335172,-00000.435193,-00000.063447,-00000.555438,-00000.006080,-00000.080713,-00000.195272
0000000002729,00001.999027,00001.205222,00001.516051,00001.919686,00002.380363,00002.136086,00002.300738,00002.711473,00001.926523,00001.335353,-00000.436227,-00000.063512,-00000.555919,-00000.005973,-00000.080897,-00000.194503
0000000002730,00001.999159,00001.205981,00001.515778,00001.920653,00002.380079,00002.136183,00002.300572,00002.711569,00001.927005,00001.335443,-00000.437234,-00000.063445,-00000.556287,-00000.005539,-00000.081409,-00000.193808
0000000002731,00001.998899,00001.206677,00001.515546,00001.921198,00002.380489,00002.136256,00002.300732,00002.711340,00001.927744,00001.335596,-00000.438477,-00000.063500,-00000.556333,-00000.005447,-00000.082291,-00000.193153
0000000002732,00001.999011,00001.206960,00001.515313,00001.921658,00002.380248,00002.136339,00002.300591,00002.711421,00001.927791,00001.335310,-00000.440059,-00000.063443,-00000.556284,-00000.005441,-00000.083090,-00000.192561
0000000002733,00001.999153,00001.207552,00001.515116,00001.922122,00002.380233,00002.136402,00002.300364,00002.711590,00001.928058,00001.335078,-00000.441480,-00000.063490,-00000.556323,-00000.005363,-00000.083841,-00000.192003
0000000002734,00001.999249,00001.208156,00001.514918,00001.922151,00002.380391,00002.136472,00002.300607,00002.712022,00001.928461,00001.335197,-00000.442828,-00000.063442,-00000.555918,-00000.004995,-00000.084158,-00000.191499
0000000002735,00001.999006,00001.208660,00001.514387,00001.921095,00002.380378,00002.136163,00002.300777,00002.711802,00001.928325,00001.335363,-00000.443674,-00000.063482,-00000.555952,-00000.004565,-00000.084071,-00000.191025
0000000002736,00001.997274,00001.208811,00001.513493,00001.918580,00002.380513,00002.136223,00002.300983,00002.711444,00001.927942,00001.336552,-00000.444096,-00000.063441,-00000.555607,-00000.004252,-00000.084341,-00000.190595
0000000002737,00001.995254,00001.208515,00001.512678,00001.915142,00002.380139,00002.136322,00002.300765,00002.711620,00001.927101,00001.337782,-00000.444454,-00000.063112,-00000.555273,-00000.003886,-00000.084631,-00000.190191
0000000002738,00001.993053,00001.208281,00001.511554,00001.911550,00002.379891,00002.136010,00002.300578,00002.710953,00001.926050,00001.338069,-00000.444813,-00000.062714,-00000.554980,-00000.003257,-00000.084860,-00000.189463
0000000002739,00001.989882,00001.207665,00001.510498,00001.907534,00002.379210,00002.135369,00002.300029,00002.710014,00001.924608,00001.338390,-00000.445480,-00000.062797,-00000.554695,-00000.002946,-00000.085469,-00000.188757
0000000002740,00001.986195,00001.207104,00001.509541,00001.904113,00002.378636,00002.134741,00002.299870,00002.709446,00001.923350,00001.338634,-00000.446874,-00000.062458,-00000.554445,-00000.003135,-00000.085665,-00000.188137
0000000002741,00001.982770,00001.206580,00001.508279,00001.901057,00002.378056,00002.134558,00002.299403,00002.708647,00001.922123,00001.338907,-00000.448531,-00000.062529,-00000.554203,-00000.002871,-00000.085821,-00000.187535
0000000002742,00001.979268,00001.206101,00001.506739,00001.897783,00002.377567,00002.134023,00002.298905,00002.707800,00001.921052,00001.339115,-00000.450080,-00000.062241,-00000.553991,-00000.002669,-00000.085987,-00000.187008
0000000002743,00001.976352,00001.205655,00001.504939,00001.894093,00002.377074,00002.133505,00002.298507,00002.707120,00001.919645,00001.339348,-00000.451853,-00000.062301,-00000.553785,-00000.002444,-00000.086120,-00000.186133
0000000002744,00001.973734,00001.205248,00001.503265,00001.890579,00002.376658,00002.133049,00002.298083,00002.706399,00001.918370,00001.339525,-00000.453535,-00000.062418,-00000.553603,-00000.002272,-00000.086261,-00000.185321
0000000002745,00001.971252,00001.204869,00001.501370,00001.887076,00002.375875,00002.132608,00002.297745,00002.705820,00001.917172,00001.339723,-00000.454682,-00000.062469,-00000.553428,-00000.002443,-00000.086374,-00000.184576
0000000002746,00001.968660,00001.204522,00001.499582,00001.883722,00002.375521,00002.132220,00002.297384,00002.705207,00001.916087,00001.339874,-00000.456113,-00000.062569,-00000.553274,-00000.002297,-00000.086132,-00000.183885
0000000002747,00001.966184,00001.204562,00001.497243,00001.881102,00002.375217,00002.131845,00002.297458,00002.704351,00001.915430,00001.340042,-00000.457452,-00000.062975,-00000.553487,-00000.002080,-00000.086228,-00000.183250
0000000002748,00001.964341,00001.204266,00001.494995,00001.878247,00002.374553,00002.131515,00002.297151,00002.703829,00001.914869,00001.340171,-00000.458671,-00000.063423,-00000.553719,-00000.001956,-00000.086385,-00000.183025
0000000002749,00001.962233,00001.203937,00001.493004,00001.875653,00002.374294,00002.131195,00002.296852,00002.703100,00001.914309,00001.340314,-00000.459811,-00000.063769,-00000.553901,-00000.001771,-00000.086104,-00000.182848
0000000002750,00001.959938,00001.203686,00001.491091,00001.873586,00002.374092,00002.130551,00002.296953,00002.702293,00001.913832,00001.340423,-00000.460486,-00000.064150,-00000.554098,-00000.001665,-00000.085874,-00000.182293
0000000002751,00001.958144,00001.203769,00001.489033,00001.872104,00002.373872,00002.130279,00002.297061,00002.702035,00001.913719,00001.340908,-00000.461093,-00000.064445,-00000.554615,-00000.001144,-00000.085635,-00000.181779
0000000002752,00001.956916,00001.203555,00001.487041,00001.870706,00002.373699,00002.130456,00002.296784,00002.701711,00001.913312,00001.341364,-00000.462031,-00000.064769,-00000.554783,-00000.000692,-00000.085440,-00000.181307
0000000002753,00001.955751,00001.203625,00001.485290,00001.869444,00002.373512,00002.130587,00002.296513,00002.701492,00001.913215,00001.341777,-00000.462911,-00000.065020,-00000.554861,-00000.000249,-00000.085599,-00000.180507
0000000002754,00001.954706,00001.203806,00001.483957,00001.867892,00002.373365,00002.130376,00002.296278,00002.701578,00001.912870,00001.342165,-00000.464071,-00000.064934,-00000.555003,00000.000137,-00000.085795,-00000.179742
0000000002755,00001.953714,00001.203503,00001.482466,00001.866455,00002.373205,00002.130125,00002.296047,00002.701392,00001.912424,00001.342516,-00000.465183,-00000.064784,-00000.555070,00000.000514,-00000.085931,-00000.179061
0000000002756,00001.952824,00001.203294,00001.480968,00001.865133,00002.372717,00002.129944,00002.295847,00002.701103,00001.912130,00001.342484,-00000.466171,-00000.064711,-00000.554828,00000.000842,-00000.086098,-00000.178410
0000000002757,00001.951617,00001.203399,00001.479699,00001.863910,00002.372944,00002.129368,00002.296013,00002.700944,00001.911751,00001.342783,-00000.466755,-00000.064584,-00000.555248,00000.001163,-00000.086213,-00000.177830
0000000002758,00001.950860,00001.203584,00001.478424,00001.862785,00002.372892,00002.129214,00002.295842,00002.700698,00001.911500,00001.343481,-00000.466508,-00000.064521,-00000.555405,00000.001442,-00000.085993,-00000.177276
0000000002759,00001.950195,00001.204036,00001.477343,00001.862469,00002.373085,00002.129086,00002.295984,00002.700563,00001.911541,00001.344461,-00000.466279,-00000.064775,-00000.555762,00000.001716,-00000.085729,-00000.176782
0000000002760,00001.949550,00001.204194,00001.476258,00001.862600,00002.373040,00002.129318,00002.295839,00002.700353,00001.911690,00001.345418,-00000.466432,-00000.065085,-00000.556259,00000.001591,-00000.086266,-00000.176311
0000000002761,00001.948621,00001.204216,00001.475338,00001.861969,00002.373205,00002.129209,00002.295959,00002.700601,00001.911724,00001.346253,-00000.466600,-00000.065301,-00000.556562,00000.001461,-00000.086767,-00000.175890
0000000002762,00001.948072,00001.204350,00001.474414,00001.861354,00002.373530,00002.129044,00002.296199,00002.700785,00001.911851,00001.347430,-00000.466367,-00000.065565,-00000.556623,00000.001717,-00000.087225,-00000.175489
0000000002763,00001.947645,00001.204731,00001.473631,00001.860816,00002.373670,00002.128951,00002.296301,00002.700633,00001.911880,00001.348504,-00000.466147,-00000.065387,-00000.556518,00000.001969,-00000.086925,-00000.175131
0000000002764,00001.948266,00001.205208,00001.473208,00001.860656,00002.373946,00002.128811,00002.296142,00002.700790,00001.911989,00001.349506,-00000.465949,-00000.065248,-00000.556570,00000.002187,-00000.086589,-00000.174789
0000000002765,00001.948990,00001.205533,00001.472904,00001.860924,00002.374065,00002.129095,00002.296592,00002.701024,00001.912014,00001.349694,-00000.466124,-00000.065459,-00000.556481,00000.002402,-00000.086697,-00000.174122
0000000002766,00001.949518,00001.206302,00001.472180,00001.861150,00002.374301,00002.129338,00002.296819,00002.701157,00001.912468,00001.349822,-00000.466318,-00000.065341,-00000.556525,00000.002588,-00000.086774,-00000.173105
0000000002767,00001.950498,00001.206579,00001.471921,00001.861016,00002.374402,00002.129579,00002.296840,00002.701719,00001.912490,00001.350345,-00000.467194,-00000.065521,-00000.556449,00000.002770,-00000.086866,-00000.172174
0000000002768,00001.951311,00001.206870,00001.471306,00001.861208,00002.374240,00002.129786,00002.297033,00002.702195,00001.912877,00001.350453,-00000.468447,-00000.065420,-00000.556486,00000.002566,-00000.086931,-00000.171671
0000000002769,00001.952144,00001.207468,00001.470360,00001.861094,00002.374326,00002.129992,00002.297051,00002.702673,00001.913258,00001.350898,-00000.469555,-00000.065573,-00000.556422,00000.002358,-00000.087009,-00000.171242
0000000002770,00001.953199,00001.208079,00001.469835,00001.861258,00002.374188,00002.130531,00002.296853,00002.703442,00001.913587,00001.350628,-00000.470622,-00000.065850,-00000.556453,00000.002184,-00000.087428,-00000.170814
0000000002771,00001.954634,00001.208589,00001.469393,00001.861523,00002.374261,00002.130706,00002.296505,00002.703849,00001.913912,00001.349919,-00000.471202,-00000.065981,-00000.556761,00000.002008,-00000.087857,-00000.170448
0000000002772,00001.955532,00001.209472,00001.468584,00001.861663,00002.374506,00002.130802,00002.297062,00002.703778,00001.914555,00001.348963,-00000.471748,-00000.066217,-00000.557151,00000.001859,-00000.088214,-00000.170084
0000000002773,00001.956391,00001.209905,00001.467844,00001.861525,00002.374206,00002.130951,00002.296765,00002.704124,00001.914831,00001.347996,-00000.472242,-00000.066327,-00000.557051,00000.001709,-00000.088216,-00000.169772
0000000002774,00001.957156,00001.210294,00001.467156,00001.861644,00002.374415,00002.131033,00002.296877,00002.704063,00001.915379,00001.347546,-00000.473069,-00000.066166,-00000.557020,00000.001946,-00000.088520,-00000.169825
0000000002775,00001.957887,00001.211026,00001.466163,00001.861890,00002.374522,00002.131160,00002.296987,00002.703995,00001.915976,00001.347085,-00000.474215,-00000.065897,-00000.556934,00000.002181,-00000.088885,-00000.169560
0000000002776,00001.958538,00001.211720,00001.464851,00001.861629,00002.374700,00002.131229,00002.297445,00002.704306,00001.916443,00001.346339,-00000.475645,-00000.065759,-00000.556908,00000.002382,-00000.089506,-00000.169242
0000000002777,00001.959886,00001.212706,00001.463644,00001.861838,00002.375154,00002.131337,00002.297902,00002.704974,00001.916952,00001.345584,-00000.477347,-00000.065894,-00000.557198,00000.002582,-00000.090179,-00000.168653
0000000002778,00001.961166,00001.213659,00001.462164,00001.861978,00002.375305,00002.131759,00002.297929,00002.705602,00001.917711,00001.344949,-00000.478564,-00000.066139,-00000.557538,00000.002753,-00000.090708,-00000.168020
0000000002779,00001.961950,00001.214498,00001.460773,00001.862157,00002.375692,00002.131851,00002.297955,00002.705808,00001.918870,00001.344307,-00000.479286,-00000.066254,-00000.557785,00000.002924,-00000.090918,-00000.167882
0000000002780,00001.963403,00001.215310,00001.459514,00001.862276,00002.375820,00002.132211,00002.297978,00002.705979,00001.919880,00001.343766,-00000.479960,-00000.066463,-00000.558074,00000.003069,-00000.090643,-00000.167705
0000000002781,00001.965522,00001.216025,00001.458330,00001.862428,00002.375787,00002.132289,00002.298363,00002.706154,00001.921229,00001.342856,-00000.480575,-00000.066560,-00000.557922,00000.003214,-00000.090459,-00000.167588
0000000002782,00001.967846,00001.216716,00001.457258,00001.862892,00002.376259,00002.132232,00002.298745,00002.706663,00001.922451,00001.342395,-00000.481511,-00000.066738,-00000.558168,00000.003701,-00000.090225,-00000.167437
0000000002783,00001.969651,00001.217324,00001.456250,00001.863022,00002.376230,00002.132661,00002.298710,00002.707175,00001.922874,00001.342709,-00000.482398,-00000.066458,-00000.558038,00000.004188,-00000.090431,-00000.166975
0000000002784,00001.969816,00001.217549,00001.455337,00001.863054,00002.376270,00002.132613,00002.298673,00002.707608,00001.922826,00001.343406,-00000.483557,-00000.066609,-00000.558248,00000.004965,-00000.090595,-00000.166121
0000000002785,00001.967724,00001.217341,00001.454116,00001.861713,00002.375882,00002.132616,00002.298280,00002.707681,00001.922461,00001.343310,-00000.484675,-00000.066734,-00000.558500,00000.005379,-00000.090770,-00000.165364
0000000002786,00001.965324,00001.217171,00001.452976,00001.860289,00002.375553,00002.132212,00002.298248,00002.706961,00001.922057,00001.342815,-00000.485299,-00000.066863,-00000.558679,00000.005678,-00000.090909,-00000.165000
0000000002787,00001.963181,00001.216994,00001.451937,00001.858785,00002.375223,00002.131851,00002.298277,00002.706298,00001.921746,00001.342371,-00000.485525,-00000.066969,-00000.558894,00000.005667,-00000.091059,-00000.164719
0000000002788,00001.961138,00001.216848,00001.450241,00001.856847,00002.374943,00002.131144,00002.298250,00002.705685,00001.921040,00001.341949,-00000.485694,-00000.067078,-00000.559046,00000.005559,-00000.091177,-00000.164772
0000000002789,00001.959313,00001.216698,00001.448993,00001.855567,00002.374663,00002.130838,00002.298274,00002.705120,00001.920775,00001.341571,-00000.486249,-00000.067169,-00000.559229,00000.005550,-00000.090942,-00000.164895
0000000002790,00001.957575,00001.216211,00001.447912,00001.853917,00002.374424,00002.130236,00002.297888,00002.704599,00001.920174,00001.341211,-00000.486756,-00000.067262,-00000.559358,00000.005458,-00000.090680,-00000.164578
0000000002791,00001.956021,00001.215720,00001.446850,00001.852464,00002.374185,00002.129975,00002.297546,00002.704118,00001.919586,00001.341252,-00000.487591,-00000.067339,-00000.559514,00000.005451,-00000.090842,-00000.164320
0000000002792,00001.954904,00001.214943,00001.446293,00001.851060,00002.373982,00002.129825,00002.297218,00002.704037,00001.919074,00001.341309,-00000.488022,-00000.067418,-00000.559624,00000.005372,-00000.090982,-00000.164049
0000000002793,00001.953944,00001.214525,00001.445751,00001.849823,00002.373778,00002.129966,00002.296926,00002.703627,00001.918573,00001.341344,-00000.488007,-00000.067484,-00000.559756,00000.005003,-00000.091120,-00000.164192
0000000002794,00001.952993,00001.213863,00001.445277,00001.848265,00002.373605,00002.129839,00002.296647,00002.703196,00001.918137,00001.341756,-00000.487649,-00000.067551,-00000.559850,00000.004573,-00000.091239,-00000.164325
0000000002795,00001.953264,00001.213145,00001.444816,00001.847212,00002.373432,00002.129595,00002.296399,00002.703210,00001.917711,00001.342148,-00000.487274,-00000.067607,-00000.559963,00000.004259,-00000.090994,-00000.164447
0000000002796,00001.953180,00001.212944,00001.444412,00001.846248,00002.373285,00002.129487,00002.296523,00002.702842,00001.917340,00001.342135,-00000.487331,-00000.067665,-00000.560043,00000.003530,-00000.090732,-00000.164923
0000000002797,00001.953048,00001.212696,00001.443657,00001.844626,00002.373138,00002.128917,00002.296312,00002.702492,00001.916977,00001.342470,-00000.487375,-00000.067712,-00000.559776,00000.003263,-00000.090524,-00000.165026
0000000002798,00001.953339,00001.212525,00001.443313,00001.843806,00002.373012,00002.129188,00002.296056,00002.702179,00001.916661,00001.342822,-00000.487787,-00000.067398,-00000.559844,00000.002643,-00000.090301,-00000.165069
0000000002799,00001.953590,00001.212313,00001.443033,00001.843151,00002.373250,00002.129065,00002.296239,00002.701880,00001.916352,00001.343832,-00000.488549,-00000.067439,-00000.559980,00000.002052,-00000.090486,-00000.164794
0000000002800,00001.953838,00001.211805,00001.442740,00001.842090,00002.373143,00002.128933,00002.296383,00002.701976,00001.916083,00001.345220,-00000.489262,-00000.067534,-00000.559675,00000.001524,-00000.090659,-00000.164467
0000000002801,00001.955139,00001.211625,00001.442502,00001.841894,00002.372982,00002.129192,00002.296176,00002.702085,00001.916183,00001.346080,-00000.489549,-00000.067569,-00000.559790,00000.000296,-00000.090817,-00000.164234
0000000002802,00001.958253,00001.211555,00001.442615,00001.841717,00002.372891,00002.129442,00002.296299,00002.702530,00001.916317,00001.346173,-00000.489793,-00000.067650,-00000.559894,-00000.001242,-00000.090964,-00000.164318
0000000002803,00001.961538,00001.211401,00001.442775,00001.841913,00002.372755,00002.130025,00002.296486,00002.703348,00001.916402,00001.346905,-00000.490400,-00000.067680,-00000.559992,-00000.003376,-00000.090736,-00000.164845
0000000002804,00001.964188,00001.211705,00001.442509,00001.842850,00002.373040,00002.130238,00002.296591,00002.703364,00001.916879,00001.347347,-00000.491334,-00000.067386,-00000.559717,-00000.006136,-00000.090499,-00000.164917
0000000002805,00001.966984,00001.211574,00001.442645,00001.843744,00002.373286,00002.130371,00002.296749,00002.704060,00001.916951,00001.347607,-00000.492938,-00000.067048,-00000.559075,-00000.009404,-00000.090667,-00000.164639
0000000002806,00001.969603,00001.211832,00001.442419,00001.844904,00002.373529,00002.130552,00002.296839,00002.704799,00001.917357,00001.347621,-00000.494459,-00000.066436,-00000.558116,-00000.012843,-00000.091190,-00000.163975
0000000002807,00001.972710,00001.211721,00001.442172,00001.845302,00002.373739,00002.130666,00002.296974,00002.705392,00001.917781,00001.347480,-00000.495825,-00000.065785,-00000.557206,-00000.016350,-00000.092059,-00000.163376
0000000002808,00001.975665,00001.211578,00001.441979,00001.845564,00002.373946,00002.130820,00002.297050,00002.706384,00001.918490,00001.347492,-00000.497119,-00000.064901,-00000.556027,-00000.020003,-00000.092868,-00000.162811
0000000002809,00001.978672,00001.211483,00001.441769,00001.846265,00002.374487,00002.130917,00002.297165,00002.707252,00001.919576,00001.347734,-00000.498282,-00000.064347,-00000.554890,-00000.023714,-00000.093244,-00000.162301
0000000002810,00001.981550,00001.211725,00001.441967,00001.847214,00002.375026,00002.131048,00002.297592,00002.708459,00001.920905,00001.347744,-00000.499384,-00000.063957,-00000.553885,-00000.027187,-00000.093207,-00000.161820
0000000002811,00001.983748,00001.212007,00001.441788,00001.848174,00002.375124,00002.131131,00002.298053,00002.709198,00001.922556,00001.347588,-00000.500011,-00000.063486,-00000.552918,-00000.030346,-00000.093165,-00000.161386
0000000002812,00001.986924,00001.212212,00001.441957,00001.849344,00002.375583,00002.131605,00002.298417,00002.710225,00001.924050,00001.347596,-00000.500224,-00000.063154,-00000.552426,-00000.033302,-00000.092771,-00000.160976
0000000002813,00001.990245,00001.212452,00001.442168,00001.851975,00002.376029,00002.132401,00002.299535,00002.711217,00001.925818,00001.347826,-00000.500032,-00000.062752,-00000.551964,-00000.035992,-00000.092372,-00000.160969
0000000002814,00001.993675,00001.212990,00001.442675,00001.854786,00002.376782,00002.132805,00002.300570,00002.712092,00001.927452,00001.347833,-00000.499488,-00000.062470,-00000.551545,-00000.038871,-00000.092036,-00000.160983
0000000002815,00001.996865,00001.213557,00001.442854,00001.858839,00002.377525,00002.133120,00002.301884,00002.712936,00001.928957,00001.348029,-00000.498599,-00000.062128,-00000.551153,-00000.041524,-00000.092060,-00000.160977
0000000002816,00001.999785,00001.214015,00001.443648,00001.863046,00002.377804,00002.133826,00002.302766,00002.714044,00001.930349,00001.348035,-00000.498135,-00000.061888,-00000.550796,-00000.043975,-00000.092499,-00000.160626
0000000002817,00002.002501,00001.214135,00001.444889,00001.867223,00002.378436,00002.134457,00002.303522,00002.715125,00001.931993,00001.348564,-00000.498104,-00000.061597,-00000.550462,-00000.045870,-00000.092882,-00000.159896
0000000002818,00002.005349,00001.214162,00001.446290,00001.871529,00002.379036,00002.135059,00002.304272,00002.716068,00001.933540,00001.348932,-00000.497709,-00000.061392,-00000.550159,-00000.047594,-00000.092894,-00000.159234
0000000002819,00002.008024,00001.214627,00001.448072,00001.875085,00002.379574,00002.135233,00002.305279,00002.716988,00001.934940,00001.349020,-00000.497320,-00000.061144,-00000.549874,-00000.049207,-00000.092857,-00000.158613
0000000002820,00002.010086,00001.215012,00001.449991,00001.878751,00002.380085,00002.135382,00002.306280,00002.717428,00001.936257,00001.348971,-00000.496621,-00000.060970,-00000.549616,-00000.050675,-00000.092866,-00000.158049
0000000002821,00002.012725,00001.215408,00001.452234,00001.882503,00002.380543,00002.136256,00002.307137,00002.718575,00001.937449,00001.349408,-00000.495565,-00000.060759,-00000.549373,-00000.052411,-00000.092835,-00000.157157
0000000002822,00002.014844,00001.215736,00001.454230,00001.886713,00002.381340,00002.136746,00002.307990,00002.719312,00001.938933,00001.350454,-00000.494244,-00000.060611,-00000.549153,-00000.054023,-00000.092843,-00000.156315
0000000002823,00002.017091,00001.216073,00001.456502,00001.891721,00002.382093,00002.137127,00002.308719,00002.720651,00001.940673,00001.351552,-00000.492982,-00000.060794,-00000.549310,-00000.055139,-00000.092817,-00000.155918
0000000002824,00002.018894,00001.216353,00001.458201,00001.896393,00002.382409,00002.137544,00002.309445,00002.721278,00001.942299,00001.352443,-00000.491857,-00000.060668,-00000.549123,-00000.056148,-00000.092461,-00000.155564
0000000002825,00002.020807,00001.216640,00001.460135,00001.901019,00002.383050,00002.138231,00002.310066,00002.722055,00001.943780,00001.353015,-00000.490783,-00000.060461,-00000.548893,-00000.057098,-00000.092075,-00000.155226
0000000002826,00002.022342,00001.217241,00001.461582,00001.904996,00002.383682,00002.138586,00002.311047,00002.722952,00001.945165,00001.353773,-00000.490188,-00000.060354,-00000.548734,-00000.057957,-00000.091772,-00000.154925
0000000002827,00002.023971,00001.217485,00001.462866,00001.908209,00002.383865,00002.139171,00002.311575,00002.723614,00001.946426,00001.354260,-00000.489636,-00000.060178,-00000.548538,-00000.058766,-00000.091807,-00000.154637
0000000002828,00002.025640,00001.217633,00001.464460,00001.911232,00002.384403,00002.139836,00002.312047,00002.724015,00001.947604,00001.354543,-00000.489130,-00000.060449,-00000.548403,-00000.059497,-00000.091912,-00000.154381
0000000002829,00002.026664,00001.217841,00001.465190,00001.914330,00002.384921,00002.140334,00002.312497,00002.724578,00001.948678,00001.353869,-00000.488298,-00000.060662,-00000.548599,-00000.060185,-00000.091579,-00000.154136
0000000002830,00002.027360,00001.217968,00001.465822,00001.915452,00002.385017,00002.140538,00002.312899,00002.724556,00001.949318,00001.353021,-00000.487141,-00000.060893,-00000.548846,-00000.060808,-00000.091305,-00000.153917
0000000002831,00002.027869,00001.217782,00001.466443,00001.915913,00002.385095,00002.140599,00002.312919,00002.724673,00001.949507,00001.352448,-00000.486070,-00000.061074,-00000.549014,-00000.061394,-00000.090659,-00000.154072
0000000002832,00002.028098,00001.217527,00001.466981,00001.916143,00002.385539,00002.140772,00002.313262,00002.724655,00001.949689,00001.351363,-00000.484722,-00000.061271,-00000.549224,-00000.062287,-00000.090063,-00000.154249
0000000002833,00002.028168,00001.217369,00001.467147,00001.915446,00002.385606,00002.140461,00002.313642,00002.724028,00001.949487,00001.350149,-00000.483084,-00000.061425,-00000.549367,-00000.062786,-00000.089513,-00000.154380
0000000002834,00002.028001,00001.216789,00001.466880,00001.913102,00002.385258,00002.140246,00002.313570,00002.723650,00001.949279,00001.349226,-00000.482300,-00000.061592,-00000.549546,-00000.063183,-00000.089369,-00000.154531
0000000002835,00002.028061,00001.215928,00001.466658,00001.909970,00002.384952,00002.139981,00002.313531,00002.723479,00001.948744,00001.348193,-00000.481994,-00000.061724,-00000.549667,-00000.063608,-00000.089625,-00000.154643
0000000002836,00002.027918,00001.215072,00001.466068,00001.906886,00002.384293,00002.139798,00002.313470,00002.723520,00001.948205,00001.347769,-00000.482053,-00000.061866,-00000.549819,-00000.063946,-00000.089866,-00000.154771
0000000002837,00002.027606,00001.214340,00001.465516,00001.903857,00002.383670,00002.139573,00002.313074,00002.723375,00001.947386,00001.347615,-00000.482155,-00000.061978,-00000.549923,-00000.064307,-00000.090084,-00000.154503
0000000002838,00002.027485,00001.213610,00001.465376,00001.901232,00002.383472,00002.139417,00002.312659,00002.723410,00001.946564,00001.347255,-00000.481842,-00000.061736,-00000.550053,-00000.064595,-00000.090289,-00000.154249
0000000002839,00002.027219,00001.213350,00001.465270,00001.898653,00002.383304,00002.139225,00002.312685,00002.722923,00001.945867,00001.346761,-00000.481566,-00000.061832,-00000.549778,-00000.064903,-00000.090112,-00000.154747
0000000002840,00002.027479,00001.213092,00001.464788,00001.896418,00002.382773,00002.139092,00002.312332,00002.722953,00001.945168,00001.346454,-00000.481299,-00000.061989,-00000.549525,-00000.065148,-00000.089560,-00000.155257
0000000002841,00002.027253,00001.212870,00001.464335,00001.894223,00002.382630,00002.138929,00002.312353,00002.722901,00001.944575,00001.346034,-00000.481064,-00000.062070,-00000.549291,-00000.065410,-00000.089410,-00000.155318
0000000002842,00002.027474,00001.212650,00001.463924,00001.893046,00002.382540,00002.139178,00002.312416,00002.722927,00001.944342,00001.345773,-00000.480837,-00000.062204,-00000.549077,-00000.065619,-00000.089666,-00000.155389
0000000002843,00002.027281,00001.212462,00001.463901,00001.892991,00002.382419,00002.139039,00002.312071,00002.722883,00001.944200,00001.345777,-00000.480275,-00000.062273,-00000.548877,-00000.065842,-00000.089175,-00000.155804
0000000002844,00002.027106,00001.212637,00001.463914,00001.893803,00002.382705,00002.138889,00002.312124,00002.722904,00001.944364,00001.346281,-00000.479356,-00000.062387,-00000.549057,-00000.066020,-00000.088668,-00000.156227
0000000002845,00002.026943,00001.212839,00001.463895,00001.895207,00002.382602,00002.139134,00002.312194,00002.722867,00001.944606,00001.345922,-00000.478151,-00000.062445,-00000.549250,-00000.066209,-00000.087887,-00000.156943
0000000002846,00002.027157,00001.212626,00001.464269,00001.896624,00002.382846,00002.139369,00002.312239,00002.722885,00001.944383,00001.345625,-00000.477006,-00000.062542,-00000.549404,-00000.066361,-00000.087092,-00000.157666
0000000002847,00002.027017,00001.212798,00001.464252,00001.897094,00002.382758,00002.138851,00002.312299,00002.722491,00001.944589,00001.344957,-00000.476344,-00000.062592,-00000.549568,-00000.066522,-00000.086791,-00000.157913
0000000002848,00002.027199,00001.212980,00001.464208,00001.897937,00002.382965,00002.139051,00002.312700,00002.722144,00001.944762,00001.344341,-00000.476095,-00000.062675,-00000.549336,-00000.066651,-00000.086477,-00000.158165
0000000002849,00002.027444,00001.212763,00001.464194,00001.898337,00002.382890,00002.138973,00002.312750,00002.722171,00001.944575,00001.343772,-00000.475893,-00000.062718,-00000.549113,-00000.066789,-00000.086220,-00000.158375
0000000002850,00002.027599,00001.212918,00001.464156,00001.899055,00002.382704,00002.139144,00002.312729,00002.722238,00001.944722,00001.343248,-00000.475318,-00000.062788,-00000.548915,-00000.066535,-00000.085590,-00000.158590
0000000002851,00002.027444,00001.213096,00001.464144,00001.899396,00002.383003,00002.139078,00002.313135,00002.722261,00001.944925,00001.342764,-00000.474784,-00000.062824,-00000.548726,-00000.066290,-00000.084645,-00000.158769
0000000002852,00002.027576,00001.213228,00001.463749,00001.899644,00002.383208,00002.138860,00002.313117,00002.721955,00001.945051,00001.342318,-00000.474295,-00000.062521,-00000.548557,-00000.066074,-00000.083746,-00000.159315
0000000002853,00002.028169,00001.213017,00001.463739,00001.899934,00002.383099,00002.139166,00002.312737,00002.722338,00001.944861,00001.341905,-00000.473840,-00000.062189,-00000.548033,-00000.065865,-00000.083305,-00000.159830
0000000002854,00002.028282,00001.213129,00001.464128,00001.900508,00002.383274,00002.138981,00002.312721,00002.722440,00001.944968,00001.341526,-00000.474149,-00000.061931,-00000.547527,-00000.065682,-00000.082903,-00000.159932
0000000002855,00002.028424,00001.212949,00001.464845,00001.900755,00002.383181,00002.139242,00002.312398,00002.722403,00001.945169,00001.341537,-00000.474487,-00000.061649,-00000.547080,-00000.065504,-00000.082890,-00000.160008
0000000002856,00002.028883,00001.212682,00001.465539,00001.901244,00002.382967,00002.139446,00002.312385,00002.722490,00001.945260,00001.341214,-00000.475113,-00000.061066,-00000.546650,-00000.065347,-00000.082910,-00000.159732
0000000002857,00002.029367,00001.212529,00001.466149,00001.901817,00002.382888,00002.139669,00002.312472,00002.722459,00001.945068,00001.341224,-00000.475764,-00000.060826,-00000.546270,-00000.065196,-00000.082899,-00000.159433
0000000002858,00002.029394,00001.212664,00001.466740,00001.902959,00002.382705,00002.139843,00002.312461,00002.722533,00001.945146,00001.341312,-00000.475934,-00000.060330,-00000.545903,-00000.065063,-00000.082916,-00000.159198
0000000002859,00002.029807,00001.212897,00001.467260,00001.903809,00002.383001,00002.139669,00002.312535,00002.722506,00001.944983,00001.341320,-00000.475763,-00000.059762,-00000.545942,-00000.064934,-00000.083270,-00000.158944
0000000002860,00002.030193,00001.212649,00001.467763,00001.904781,00002.382846,00002.139818,00002.312526,00002.722932,00001.944686,00001.341395,-00000.475545,-00000.059703,-00000.545630,-00000.064821,-00000.083647,-00000.159107
0000000002861,00002.030544,00001.212847,00001.468205,00001.905868,00002.383098,00002.140033,00002.312589,00002.723272,00001.944547,00001.341402,-00000.475761,-00000.059583,-00000.545301,-00000.064348,-00000.083585,-00000.159254
0000000002862,00002.030872,00001.212999,00001.468996,00001.906696,00002.383328,00002.140159,00002.312581,00002.723635,00001.944657,00001.341465,-00000.475938,-00000.059532,-00000.545035,-00000.063889,-00000.083544,-00000.159392
0000000002863,00002.030808,00001.213168,00001.469373,00001.907984,00002.383180,00002.140342,00002.312997,00002.723561,00001.944901,00001.341835,-00000.476486,-00000.059430,-00000.544754,-00000.063486,-00000.083491,-00000.159154
0000000002864,00002.031088,00001.213297,00001.470046,00001.909051,00002.383013,00002.140450,00002.312990,00002.723870,00001.944995,00001.341526,-00000.476637,-00000.059387,-00000.544528,-00000.063096,-00000.083819,-00000.158547
0000000002865,00002.031397,00001.213441,00001.470730,00001.910510,00002.382887,00002.140605,00002.312982,00002.724170,00001.945566,00001.341114,-00000.476740,-00000.058937,-00000.544289,-00000.062753,-00000.084137,-00000.158344
0000000002866,00002.031998,00001.213551,00001.471666,00001.911781,00002.382745,00002.140697,00002.312977,00002.724796,00001.945646,00001.341214,-00000.476868,-00000.058900,-00000.544097,-00000.062783,-00000.084415,-00000.158189
0000000002867,00002.032623,00001.213673,00001.472610,00001.913024,00002.383000,00002.140830,00002.312970,00002.725051,00001.945769,00001.341589,-00000.477319,-00000.058517,-00000.543894,-00000.062492,-00000.084686,-00000.157654
0000000002868,00002.032772,00001.214129,00001.473044,00001.914106,00002.383242,00002.140908,00002.313327,00002.724858,00001.946200,00001.341675,-00000.478154,-00000.058486,-00000.543730,-00000.062154,-00000.084923,-00000.157160
0000000002869,00002.033304,00001.214233,00001.473849,00001.914801,00002.383097,00002.141383,00002.313322,00002.725076,00001.946305,00001.341631,-00000.479263,-00000.058160,-00000.543194,-00000.061906,-00000.084791,-00000.156704
0000000002870,00002.033431,00001.214259,00001.474581,00001.915359,00002.383303,00002.141450,00002.313626,00002.725274,00001.946672,00001.341704,-00000.480699,-00000.058133,-00000.542692,-00000.061619,-00000.084993,-00000.156283
0000000002871,00002.033884,00001.214348,00001.475265,00001.915588,00002.383542,00002.141492,00002.313621,00002.725460,00001.946761,00001.341667,-00000.483457,-00000.058219,-00000.542235,-00000.061408,-00000.085606,-00000.155895
0000000002872,00002.033992,00001.214370,00001.475526,00001.914612,00002.383717,00002.141186,00002.313881,00002.725266,00001.946710,00001.341366,-00000.487583,-00000.058196,-00000.541808,-00000.060800,-00000.086503,-00000.155537
0000000002873,00002.034015,00001.214082,00001.475383,00001.912630,00002.383195,00002.141221,00002.313876,00002.725061,00001.946424,00001.341334,-00000.493196,-00000.058268,-00000.541057,-00000.059895,-00000.087388,-00000.155207
0000000002874,00002.033744,00001.214464,00001.475242,00001.909986,00002.382982,00002.141323,00002.314097,00002.724896,00001.946381,00001.341078,-00000.500335,-00000.058249,-00000.539967,-00000.058653,-00000.088152,-00000.154902
0000000002875,00002.033038,00001.214582,00001.474032,00001.906484,00002.382174,00002.141354,00002.313731,00002.724721,00001.946499,00001.340688,-00000.509830,-00000.058674,-00000.538602,-00000.057156,-00000.089268,-00000.154621
0000000002876,00002.031719,00001.214544,00001.472461,00001.902419,00002.381267,00002.141441,00002.312467,00002.724581,00001.945737,00001.341921,-00000.520624,-00000.059383,-00000.537674,-00000.055373,-00000.090281,-00000.153998
0000000002877,00002.029666,00001.214645,00001.470343,00001.897624,00002.380217,00002.141104,00002.311430,00002.723707,00001.944387,00001.341953,-00000.533424,-00000.060107,-00000.536875,-00000.053010,-00000.091594,-00000.153396
0000000002878,00002.027092,00001.214612,00001.467191,00001.891624,00002.378719,00002.140452,00002.310354,00002.722861,00001.942287,00001.341551,-00000.548055,-00000.060711,-00000.536085,-00000.050767,-00000.093182,-00000.152866
0000000002879,00002.022806,00001.214698,00001.463937,00001.885366,00002.376737,00002.139440,00002.309108,00002.721392,00001.940412,00001.341215,-00000.563304,-00000.062416,-00000.535405,-00000.048756,-00000.095388,-00000.152354
0000000002880,00002.016624,00001.214670,00001.459077,00001.878444,00002.374736,00002.138523,00002.307830,00002.719584,00001.937898,00001.340510,-00000.580839,-00000.064744,-00000.534733,-00000.046846,-00000.097828,-00000.151540
0000000002881,00002.010435,00001.215106,00001.451227,00001.868037,00002.372323,00002.137661,00002.306044,00002.717970,00001.932312,00001.338773,-00000.603253,-00000.068009,-00000.534154,-00000.044408,-00000.100432,-00000.151466
0000000002882,00002.003721,00001.215808,00001.441286,00001.850172,00002.369168,00002.136517,00002.303867,00002.715705,00001.928358,00001.337084,-00000.628701,-00000.071805,-00000.533219,-00000.040605,-00000.103235,-00000.151499
0000000002883,00001.996638,00001.218356,00001.430975,00001.831154,00002.366389,00002.135058,00002.301621,00002.713968,00001.924327,00001.333791,-00000.656490,-00000.076036,-00000.532363,-00000.035991,-00000.106177,-00000.150711
0000000002884,00001.989472,00001.221856,00001.420698,00001.811955,00002.363340,00002.133358,00002.299042,00002.712040,00001.919873,00001.329089,-00000.686498,-00000.080718,-00000.531204,-00000.030214,-00000.109289,-00000.149650
0000000002885,00001.972921,00001.225476,00001.410469,00001.792863,00002.359885,00002.131753,00002.296042,00002.709836,00001.915354,00001.323746,-00000.718499,-00000.086134,-00000.530475,-00000.024109,-00000.112519,-00000.148254
0000000002886,00001.956299,00001.228818,00001.399906,00001.773616,00002.355477,00002.129944,00002.291670,00002.707107,00001.910836,00001.316478,-00000.754203,-00000.092297,-00000.529852,-00000.017740,-00000.114442,-00000.146625
0000000002887,00001.940759,00001.232263,00001.388297,00001.754824,00002.351084,00002.128215,00002.287301,00002.704142,00001.906263,00001.308302,-00000.791966,-00000.099084,-00000.529594,-00000.011454,-00000.115015,-00000.145437
0000000002888,00001.925883,00001.235834,00001.376039,00001.736988,00002.346605,00002.126312,00002.282854,00002.701093,00001.901329,00001.298849,-00000.831068,-00000.106508,-00000.530151,-00000.006032,-00000.114839,-00000.145139
0000000002889,00001.912653,00001.240580,00001.363616,00001.719539,00002.341778,00002.124840,00002.279135,00002.697843,00001.895985,00001.289349,-00000.870835,-00000.115551,-00000.531021,-00000.001044,-00000.114964,-00000.144489
0000000002890,00001.899627,00001.245434,00001.350642,00001.702904,00002.336877,00002.123219,00002.275712,00002.694522,00001.891059,00001.279851,-00000.911741,-00000.125135,-00000.531495,00000.003935,-00000.115176,-00000.143510
0000000002891,00001.887639,00001.250563,00001.337527,00001.686598,00002.332041,00002.121603,00002.272546,00002.690667,00001.886147,00001.268498,-00000.953938,-00000.135010,-00000.531872,00000.009270,-00000.114920,-00000.142957
0000000002892,00001.876186,00001.255783,00001.324668,00001.670986,00002.326781,00002.120224,00002.269632,00002.686751,00001.881228,00001.256785,-00000.997469,-00000.145346,-00000.531914,00000.014959,-00000.114012,-00000.143212
0000000002893,00001.865618,00001.260512,00001.312414,00001.655291,00002.321939,00002.118486,00002.266574,00002.682018,00001.876683,00001.245306,-00001.041010,-00000.155930,-00000.531872,00000.020952,-00000.111980,-00000.143467
0000000002894,00001.855143,00001.265682,00001.300742,00001.640912,00002.317097,00002.116586,00002.264093,00002.676871,00001.871407,00001.233520,-00001.084598,-00000.166180,-00000.531907,00000.026884,-00000.110119,-00000.143684
0000000002895,00001.845784,00001.270433,00001.289585,00001.626825,00002.312613,00002.114381,00002.262216,00002.672116,00001.866450,00001.221935,-00001.127832,-00000.176278,-00000.531509,00000.032711,-00000.108026,-00000.143538
0000000002896,00001.837229,00001.275560,00001.278923,00001.613495,00002.308128,00002.112763,00002.260829,00002.667734,00001.861233,00001.210813,-00001.168929,-00000.185730,-00000.531176,00000.038123,-00000.106080,-00000.142997
0000000002897,00001.829262,00001.280693,00001.267974,00001.601141,00002.303948,00002.110886,00002.259957,00002.663324,00001.856650,00001.200225,-00001.208999,-00000.194326,-00000.530837,00000.043084,-00000.104298,-00000.141785
0000000002898,00001.821616,00001.285783,00001.257808,00001.589431,00002.299768,00002.109146,00002.259139,00002.658868,00001.851846,00001.189669,-00001.247613,-00000.202735,-00000.530553,00000.048055,-00000.102640,-00000.140599
0000000002899,00001.814471,00001.291967,00001.248125,00001.578187,00002.296209,00002.107185,00002.258759,00002.654751,00001.847219,00001.179566,-00001.284627,-00000.211142,-00000.530264,00000.053003,-00000.100398,-00000.139930
0000000002900,00001.807599,00001.297751,00001.238745,00001.567493,00002.292650,00002.105704,00002.258063,00002.650957,00001.842404,00001.169491,-00001.321490,-00000.219752,-00000.530023,00000.057597,-00000.097899,-00000.139646
0000000002901,00001.801153,00001.303016,00001.229776,00001.556833,00002.289258,00002.104397,00002.258828,00002.647452,00001.838102,00001.159803,-00001.356991,-00000.228359,-00000.529415,00000.061810,-00000.095264,-00000.139439
0000000002902,00001.794941,00001.307940,00001.221066,00001.547366,00002.285865,00002.103137,00002.260049,00002.644223,00001.833640,00001.150501,-00001.391274,-00000.237140,-00000.528846,00000.066084,-00000.093137,-00000.139197
0000000002903,00001.789454,00001.312784,00001.213068,00001.538291,00002.282615,00002.102024,00002.261063,00002.641239,00001.829615,00001.141527,-00001.423310,-00000.245556,-00000.528328,00000.069670,-00000.091620,-00000.138658
0000000002904,00001.784528,00001.317702,00001.205653,00001.529869,00002.280090,00002.100951,00002.262466,00002.638127,00001.825817,00001.133245,-00001.453947,-00000.253757,-00000.527845,00000.072946,-00000.089808,-00000.138452
0000000002905,00001.779857,00001.322188,00001.198844,00001.522144,00002.277322,00002.099641,00002.263692,00002.635224,00001.822390,00001.126332,-00001.483759,-00000.261284,-00000.527766,00000.075999,-00000.088154,-00000.138356
0000000002906,00001.775301,00001.326375,00001.192531,00001.514975,00002.274447,00002.098728,00002.264886,00002.632575,00001.818068,00001.118919,-00001.513468,-00000.268628,-00000.527717,00000.078424,-00000.085886,-00000.138180
0000000002907,00001.771324,00001.330194,00001.186372,00001.507672,00002.271728,00002.097613,00002.265929,00002.629741,00001.813700,00001.111582,-00001.543200,-00000.276125,-00000.527651,00000.080661,-00000.083752,-00000.138461
0000000002908,00001.767445,00001.333395,00001.180998,00001.500118,00002.269281,00002.096835,00002.266946,00002.627123,00001.809295,00001.104909,-00001.572482,-00000.284190,-00000.527246,00000.082363,-00000.081459,-00000.138675
0000000002909,00001.764060,00001.336284,00001.176118,00001.493176,00002.266603,00002.095886,00002.268197,00002.624710,00001.804851,00001.098663,-00001.600333,-00000.292023,-00000.526827,00000.084266,-00000.079280,-00000.138189
0000000002910,00001.760758,00001.339009,00001.171906,00001.486382,00002.262706,00002.095223,00002.269425,00002.622481,00001.800376,00001.092619,-00001.626349,-00000.299615,-00000.526482,00000.086078,-00000.077691,-00000.136919
0000000002911,00001.757513,00001.341831,00001.167751,00001.479384,00002.258250,00002.094415,00002.270490,00002.619702,00001.796229,00001.085851,-00001.651146,-00000.307009,-00000.526488,00000.087699,-00000.075835,-00000.135780
0000000002912,00001.754702,00001.344514,00001.163803,00001.472874,00002.254206,00002.093489,00002.271536,00002.617442,00001.792057,00001.079617,-00001.675108,-00000.314198,-00000.526558,00000.089241,-00000.073757,-00000.135062
0000000002913,00001.751940,00001.346916,00001.160265,00001.466554,00002.250050,00002.093164,00002.272443,00002.615438,00001.788164,00001.073493,-00001.698758,-00000.321218,-00000.526563,00000.090984,-00000.071814,-00000.134454
0000000002914,00001.748822,00001.348837,00001.156904,00001.460287,00002.245882,00002.092012,00002.273333,00002.612789,00001.783886,00001.067460,-00001.722058,-00000.328426,-00000.526259,00000.093022,-00000.070408,-00000.133843
0000000002915,00001.746107,00001.350519,00001.153893,00001.454181,00002.241619,00002.091373,00002.274105,00002.610720,00001.779122,00001.061884,-00001.744731,-00000.335490,-00000.526263,00000.095231,-00000.069117,-00000.132963
0000000002916,00001.743452,00001.352154,00001.151032,00001.448483,00002.237345,00002.090392,00002.274862,00002.608465,00001.774754,00001.056749,-00001.766381,-00000.341989,-00000.526368,00000.096967,-00000.068645,-00000.132080
0000000002917,00001.741142,00001.353587,00001.148468,00001.443285,00002.233352,00002.089848,00002.275882,00002.605978,00001.770698,00001.051276,-00001.786770,-00000.348003,-00000.526734,00000.098122,-00000.068635,-00000.130606
0000000002918,00001.738519,00001.354979,00001.146033,00001.438435,00002.229714,00002.089014,00002.276890,00002.603695,00001.767343,00001.045816,-00001.806289,-00000.354261,-00000.526823,00000.099599,-00000.068596,-00000.128766
0000000002919,00001.736189,00001.356198,00001.143488,00001.433647,00002.225953,00002.088187,00002.277396,00002.601579,00001.763890,00001.040068,-00001.824373,-00000.359744,-00000.526772,00000.101308,-00000.067499,-00000.127148
0000000002920,00001.733956,00001.357383,00001.141051,00001.428792,00002.222493,00002.087114,00002.278254,00002.599998,00001.761034,00001.034694,-00001.841352,-00000.364709,-00000.526848,00000.102928,-00000.066377,-00000.125944
0000000002921,00001.731973,00001.358421,00001.138885,00001.423265,00002.219290,00002.086048,00002.278684,00002.599285,00001.757731,00001.029802,-00001.857835,-00000.369739,-00000.527167,00000.104383,-00000.065443,-00000.124929
0000000002922,00001.730072,00001.359430,00001.137173,00001.416955,00002.216708,00002.085134,00002.279052,00002.598664,00001.754211,00001.024864,-00001.873015,-00000.374691,-00000.527594,00000.105400,-00000.063763,-00000.123905
0000000002923,00001.728384,00001.360313,00001.135329,00001.410436,00002.213982,00002.084227,00002.279781,00002.597694,00001.750675,00001.019611,-00001.887772,-00000.379336,-00000.527866,00000.106275,-00000.061879,-00000.122678
0000000002924,00001.726403,00001.361535,00001.133509,00001.404702,00002.211420,00002.083449,00002.280456,00002.595352,00001.747678,00001.013231,-00001.902146,-00000.383189,-00000.528230,00000.107141,-00000.060449,-00000.121080
0000000002925,00001.724602,00001.362287,00001.131939,00001.397701,00002.208737,00002.082313,00002.281077,00002.592350,00001.744667,00001.005130,-00001.916523,-00000.386417,-00000.528099,00000.108249,-00000.058845,-00000.119310
0000000002926,00001.722553,00001.361513,00001.130027,00001.389917,00002.206193,00002.080926,00002.281652,00002.589268,00001.741391,00000.995708,-00001.930573,-00000.389335,-00000.528045,00000.109711,-00000.057265,-00000.117587
0000000002927,00001.720295,00001.360340,00001.128328,00001.382506,00002.203909,00002.079596,00002.282181,00002.585623,00001.738465,00000.986998,-00001.943175,-00000.392446,-00000.527934,00000.111018,-00000.055537,-00000.116443
0000000002928,00001.717825,00001.359318,00001.126700,00001.375154,00002.201381,00002.078415,00002.282670,00002.581911,00001.735313,00000.977526,-00001.954773,-00000.395292,-00000.528251,00000.112263,-00000.053828,-00000.115339
0000000002929,00001.715177,00001.358319,00001.124891,00001.368119,00002.199073,00002.076920,00002.283120,00002.578083,00001.732096,00000.968298,-00001.965864,-00000.397941,-00000.528519,00000.113375,-00000.052720,-00000.114366
0000000002930,00001.712712,00001.357449,00001.123142,00001.361135,00002.196559,00002.075552,00002.283537,00002.574197,00001.729050,00000.959508,-00001.976100,-00000.400364,-00000.528426,00000.114434,-00000.051629,-00000.113063
0000000002931,00001.710457,00001.356599,00001.121602,00001.354058,00002.194231,00002.073917,00002.283920,00002.570213,00001.725949,00000.951289,-00001.985905,-00000.402618,-00000.528654,00000.115381,-00000.050686,-00000.111871
0000000002932,00001.708721,00001.355495,00001.120113,00001.347386,00002.192090,00002.072752,00002.284275,00002.566905,00001.722993,00000.943444,-00001.995345,-00000.404681,-00000.528938,00000.116283,-00000.049756,-00000.111125
0000000002933,00001.706802,00001.354771,00001.118439,00001.341362,00002.190109,00002.071723,00002.284601,00002.563876,00001.720716,00000.936085,-00002.004054,-00000.406601,-00000.529132,00000.117089,-00000.049316,-00000.110473
0000000002934,00001.704962,00001.354195,00001.116809,00001.335682,00002.188287,00002.070368,00002.284903,00002.560697,00001.718199,00000.929043,-00002.013541,-00000.407994,-00000.529011,00000.118583,-00000.048888,-00000.109475
0000000002935,00001.703691,00001.353216,00001.116110,00001.329828,00002.186600,00002.069492,00002.284818,00002.558118,00001.715898,00000.922415,-00002.023495,-00000.409628,-00000.528451,00000.120357,-00000.048513,-00000.108920
0000000002936,00001.702124,00001.352362,00001.115085,00001.324267,00002.185049,00002.068339,00002.285075,00002.555412,00001.713756,00000.916058,-00002.033385,-00000.411177,-00000.527622,00000.122354,-00000.048148,-00000.108433
0000000002937,00001.700679,00001.351529,00001.114127,00001.318921,00002.183976,00002.067230,00002.285002,00002.552854,00001.711797,00000.910053,-00002.043310,-00000.412568,-00000.526782,00000.124590,-00000.048192,-00000.107598
0000000002938,00001.699708,00001.350802,00001.113254,00001.313824,00002.182292,00002.066248,00002.284859,00002.550187,00001.709610,00000.904278,-00002.052818,-00000.413886,-00000.526077,00000.126291,-00000.048607,-00000.106458
0000000002939,00001.698478,00001.350455,00001.112438,00001.309273,00002.181379,00002.064942,00002.285160,00002.547284,00001.707943,00000.898803,-00002.060904,-00000.415433,-00000.525725,00000.127831,-00000.049007,-00000.105747
0000000002940,00001.697289,00001.349837,00001.111696,00001.304934,00002.180308,00002.064106,00002.285400,00002.544651,00001.706444,00000.893887,-00002.068273,-00000.417281,-00000.525487,00000.130004,-00000.048998,-00000.105140
0000000002941,00001.696604,00001.349179,00001.111001,00001.300697,00002.179168,00002.063357,00002.285293,00002.542180,00001.704661,00000.888864,-00002.074794,-00000.418961,-00000.524824,00000.132042,-00000.048250,-00000.104535
0000000002942,00001.695592,00001.348652,00001.110369,00001.296641,00002.178257,00002.062645,00002.285135,00002.539576,00001.703023,00000.883590,-00002.081430,-00000.420534,-00000.523896,00000.134254,-00000.047517,-00000.104380
0000000002943,00001.695009,00001.348092,00001.109778,00001.292670,00002.177286,00002.062007,00002.285044,00002.537471,00001.701143,00000.878951,-00002.088432,-00000.421964,-00000.522969,00000.136714,-00000.046517,-00000.104228
0000000002944,00001.694147,00001.348007,00001.108877,00001.288855,00002.176510,00002.061039,00002.285273,00002.535255,00001.699748,00000.874462,-00002.095170,-00000.423304,-00000.521817,00000.138598,-00000.045530,-00000.104096
0000000002945,00001.693288,00001.347530,00001.108011,00001.285475,00002.175683,00002.060496,00002.285195,00002.533463,00001.698510,00000.870149,-00002.101857,-00000.424521,-00000.520665,00000.140329,-00000.045405,-00000.103966
0000000002946,00001.692917,00001.347094,00001.107244,00001.281864,00002.175023,00002.060034,00002.285390,00002.531939,00001.696960,00000.865965,-00002.107955,-00000.425298,-00000.519683,00000.142295,-00000.045653,-00000.103854
0000000002947,00001.692186,00001.347051,00001.106506,00001.278623,00002.174682,00002.059572,00002.285687,00002.530777,00001.695906,00000.860117,-00002.114373,-00000.425972,-00000.518340,00000.144495,-00000.045546,-00000.103744
0000000002948,00001.691508,00001.347043,00001.105853,00001.275549,00002.174483,00002.059179,00002.285852,00002.529479,00001.694949,00000.853290,-00002.121741,-00000.427359,-00000.517142,00000.147257,-00000.045032,-00000.104011
0000000002949,00001.690885,00001.347006,00001.104863,00001.272791,00002.173830,00002.058785,00002.286105,00002.528127,00001.694052,00000.845772,-00002.129019,-00000.429021,-00000.515998,00000.149855,-00000.044215,-00000.104643
0000000002950,00001.690308,00001.346999,00001.104307,00001.269811,00002.173660,00002.058450,00002.286608,00002.527385,00001.692874,00000.838871,-00002.135654,-00000.430202,-00000.514978,00000.152569,-00000.043415,-00000.104870
0000000002951,00001.690141,00001.346968,00001.103827,00001.267463,00002.173467,00002.058478,00002.286824,00002.526234,00001.692111,00000.832471,-00002.141487,-00000.431254,-00000.514005,00000.155144,-00000.042720,-00000.105408
0000000002952,00001.689649,00001.346962,00001.103353,00001.265289,00002.173323,00002.058193,00002.286889,00002.525603,00001.691471,00000.826960,-00002.146047,-00000.432259,-00000.513499,00000.157455,-00000.042038,-00000.105965
0000000002953,00001.689507,00001.346936,00001.102944,00001.263290,00002.172796,00002.058217,00002.287073,00002.524986,00001.690458,00000.821874,-00002.150650,-00000.432792,-00000.513033,00000.159646,-00000.041446,-00000.106422
0000000002954,00001.689451,00001.346931,00001.102542,00001.261077,00002.173035,00002.057974,00002.287129,00002.524448,00001.689551,00000.816457,-00002.155258,-00000.433285,-00000.512240,00000.161976,-00000.040866,-00000.106896
0000000002955,00001.689330,00001.347271,00001.102193,00001.259375,00002.173312,00002.057632,00002.287648,00002.523560,00001.689051,00000.811402,-00002.159902,-00000.433739,-00000.510755,00000.164568,-00000.040362,-00000.107286
0000000002956,00001.689282,00001.347267,00001.101850,00001.257491,00002.173516,00002.057425,00002.288058,00002.522739,00001.688279,00000.806064,-00002.164913,-00000.434521,-00000.509354,00000.167277,-00000.040231,-00000.107326
0000000002957,00001.689179,00001.347193,00001.101554,00001.255679,00002.173752,00002.057134,00002.288500,00002.522346,00001.687491,00000.801035,-00002.169954,-00000.435270,-00000.508090,00000.169845,-00000.040165,-00000.107295
0000000002958,00001.689501,00001.347553,00001.101262,00001.254075,00002.173563,00002.057321,00002.288849,00002.522736,00001.686833,00000.796491,-00002.174220,-00000.435936,-00000.507260,00000.172152,-00000.040053,-00000.107330
0000000002959,00001.689777,00001.349304,00001.101010,00001.252896,00002.173764,00002.057435,00002.289225,00002.522764,00001.686525,00000.792210,-00002.176698,-00000.436574,-00000.506909,00000.174338,-00000.039635,-00000.107666
0000000002960,00001.689922,00001.352915,00001.100547,00001.250526,00002.174862,00002.057692,00002.289843,00002.523120,00001.685703,00000.783972,-00002.181351,-00000.438046,-00000.505905,00000.179614,-00000.038457,-00000.108345
0000000002961,00001.689793,00001.354411,00001.099972,00001.249001,00002.175397,00002.057465,00002.289787,00002.523402,00001.685227,00000.780370,-00002.184604,-00000.439255,-00000.505249,00000.182266,-00000.038067,-00000.108679
0000000002962,00001.690046,00001.355626,00001.099789,00001.247783,00002.176160,00002.057910,00002.290006,00002.523785,00001.685004,00000.777322,-00002.187851,-00000.440388,-00000.504686,00000.185194,-00000.038181,-00000.108922
0000000002963,00001.690299,00001.356900,00001.100026,00001.246848,00002.178429,00002.058442,00002.290321,00002.524389,00001.684961,00000.774618,-00002.189532,-00000.441417,-00000.504128,00000.187815,-00000.038211,-00000.108844
0000000002964,00001.690515,00001.357934,00001.100233,00001.246174,00002.181255,00002.058822,00002.290507,00002.525440,00001.684771,00000.773112,-00002.189031,-00000.442382,-00000.504375,00000.189945,-00000.038671,-00000.109051
0000000002965,00001.690730,00001.359744,00001.100072,00001.245377,00002.184275,00002.058912,00002.291139,00002.525954,00001.685097,00000.771898,-00002.187560,-00000.443258,-00000.504988,00000.191087,-00000.039060,-00000.110073
0000000002966,00001.690914,00001.361350,00001.099885,00001.244804,00002.186681,00002.059235,00002.291297,00002.526849,00001.685298,00000.770978,-00002.186408,-00000.444079,-00000.505198,00000.191812,-00000.038725,-00000.111338
0000000002967,00001.691097,00001.363254,00001.099748,00001.244489,00002.189252,00002.059675,00002.291835,00002.527649,00001.685576,00000.770309,-00002.185518,-00000.444825,-00000.505357,00000.192421,-00000.038331,-00000.112570
0000000002968,00001.691253,00001.364984,00001.099589,00001.244000,00002.191663,00002.059950,00002.291969,00002.528774,00001.685747,00000.769525,-00002.184175,-00000.445887,-00000.505899,00000.192675,-00000.038046,-00000.113647
0000000002969,00001.691772,00001.366604,00001.099472,00001.243732,00002.194215,00002.060324,00002.292064,00002.529818,00001.685984,00000.769318,-00002.182692,-00000.446884,-00000.506035,00000.193194,-00000.038436,-00000.114333
0000000002970,00001.691905,00001.368077,00001.099700,00001.243316,00002.196630,00002.060558,00002.292542,00002.530776,00001.686492,00000.769014,-00002.181548,-00000.447789,-00000.506133,00000.193774,-00000.038919,-00000.114525
0000000002971,00001.691984,00001.369819,00001.099963,00001.243088,00002.199165,00002.060877,00002.292985,00002.530213,00001.687056,00000.768837,-00002.179560,-00000.448638,-00000.506611,00000.194215,-00000.039250,-00000.115109
0000000002972,00001.692097,00001.371436,00001.100157,00001.242734,00002.201584,00002.061076,00002.293392,00002.529577,00001.687126,00000.768579,-00002.177135,-00000.449408,-00000.507057,00000.194709,-00000.039662,-00000.115634
0000000002973,00001.692164,00001.372556,00001.100381,00001.242540,00002.203742,00002.060984,00002.293769,00002.528736,00001.687244,00000.768428,-00002.173992,-00000.450130,-00000.507827,00000.194722,-00000.039581,-00000.116495
0000000002974,00001.692260,00001.373570,00001.100546,00001.241876,00002.205439,00002.061154,00002.293753,00002.527832,00001.686940,00000.767845,-00002.170476,-00000.450786,-00000.508933,00000.194779,-00000.039206,-00000.117305
0000000002975,00001.691955,00001.374524,00001.100737,00001.240984,00002.206913,00002.061076,00002.293711,00002.526752,00001.686678,00000.767354,-00002.166712,-00000.451764,-00000.509951,00000.195153,-00000.038412,-00000.118400
0000000002976,00001.692037,00001.375024,00001.101240,00001.239694,00002.207994,00002.061220,00002.293334,00002.525257,00001.686420,00000.766858,-00002.163356,-00000.452685,-00000.510529,00000.195564,-00000.038092,-00000.119090
0000000002977,00001.691777,00001.375473,00001.101402,00001.238572,00002.208886,00002.061154,00002.292936,00002.523975,00001.685833,00000.766440,-00002.160152,-00000.453880,-00000.511396,00000.195520,-00000.038142,-00000.119296
0000000002978,00001.691484,00001.375536,00001.101831,00001.237473,00002.209807,00002.060914,00002.292615,00002.523065,00001.685251,00000.766380,-00002.156932,-00000.455027,-00000.512251,00000.195507,-00000.038958,-00000.119158
0000000002979,00001.691262,00001.375918,00001.101969,00001.236518,00002.210567,00002.060495,00002.292639,00002.521974,00001.684751,00000.766387,-00002.153842,-00000.456044,-00000.513715,00000.194744,-00000.040089,-00000.118971
0000000002980,00001.691013,00001.376334,00001.102334,00001.235583,00002.211350,00002.060291,00002.292366,00002.521199,00001.684255,00000.766337,-00002.150738,-00000.457020,-00000.515531,00000.193645,-00000.040421,-00000.119216
0000000002981,00001.690824,00001.376297,00001.103177,00001.234770,00002.211997,00002.060297,00002.292023,00002.520271,00001.683830,00000.766343,-00002.147744,-00000.458250,-00000.517503,00000.192632,-00000.040295,-00000.119420
0000000002982,00001.690612,00001.376651,00001.103488,00001.233611,00002.212664,00002.060123,00002.292154,00002.519248,00001.683408,00000.765937,-00002.145828,-00000.459443,-00000.519412,00000.191696,-00000.039489,-00000.119991
0000000002983,00001.690451,00001.376982,00001.103843,00001.232556,00002.213215,00002.060128,00002.292225,00002.518457,00001.683046,00000.765942,-00002.144367,-00000.460853,-00000.520727,00000.191197,-00000.038657,-00000.120164
0000000002984,00001.690271,00001.377284,00001.103744,00001.231570,00002.213783,00002.059980,00002.292336,00002.517587,00001.683050,00000.765959,-00002.143099,-00000.462957,-00000.522352,00000.190763,-00000.038334,-00000.120288
0000000002985,00001.690134,00001.377566,00001.104046,00001.230672,00002.214614,00002.059984,00002.292397,00002.517277,00001.683104,00000.765963,-00002.141855,-00000.465245,-00000.523835,00000.190339,-00000.038350,-00000.120073
0000000002986,00001.689980,00001.377823,00001.104688,00001.229832,00002.215098,00002.059858,00002.292128,00002.516536,00001.682745,00000.765978,-00002.140412,-00000.467400,-00000.525219,00000.189969,-00000.038075,-00000.119815
0000000002987,00001.690227,00001.378063,00001.104946,00001.229067,00002.215443,00002.060224,00002.292180,00002.515909,00001.682428,00000.766344,-00002.138266,-00000.469347,-00000.526844,00000.189245,-00000.037727,-00000.119995
0000000002988,00001.690458,00001.378644,00001.105129,00001.228715,00002.216580,00002.060480,00002.292677,00002.515278,00001.682485,00000.767445,-00002.135586,-00000.470819,-00000.528747,00000.188205,-00000.037130,-00000.120138
0000000002989,00001.690305,00001.378848,00001.105711,00001.228064,00002.217236,00002.060429,00002.292721,00002.514744,00001.682578,00000.768483,-00002.132307,-00000.472114,-00000.530856,00000.186862,-00000.036470,-00000.119928
0000000002990,00001.690503,00001.379343,00001.106230,00001.227402,00002.218204,00002.060647,00002.292781,00002.514570,00001.682626,00000.769782,-00002.129301,-00000.473729,-00000.533565,00000.185251,-00000.035962,-00000.119325
0000000002991,00001.690903,00001.380301,00001.107167,00001.226283,00002.218862,00002.060789,00002.292507,00002.513968,00001.682384,00000.772861,-00002.125039,-00000.477658,-00000.538392,00000.182737,-00000.035694,-00000.118270
0000000002992,00001.691101,00001.380758,00001.107589,00001.225812,00002.219337,00002.061061,00002.292593,00002.513890,00001.682143,00000.774230,-00002.124060,-00000.479578,-00000.540538,00000.181818,-00000.035525,-00000.118172
0000000002993,00001.691050,00001.381143,00001.108324,00001.224205,00002.220189,00002.060778,00002.292710,00002.513388,00001.681610,00000.776284,-00002.125293,-00000.483363,-00000.544328,00000.179452,-00000.035684,-00000.117651
0000000002994,00001.691006,00001.381834,00001.108950,00001.222473,00002.219826,00002.060538,00002.292809,00002.512961,00001.681156,00000.777308,-00002.128157,-00000.486222,-00000.547554,00000.177800,-00000.035820,-00000.116845
0000000002995,00001.690969,00001.383147,00001.109120,00001.220274,00002.219154,00002.060333,00002.293257,00002.512235,00001.680770,00000.776727,-00002.133860,-00000.487568,-00000.550301,00000.176757,-00000.035572,-00000.115796
0000000002996,00001.691058,00001.383716,00001.108989,00001.219082,00002.218904,00002.060603,00002.293323,00002.511928,00001.679116,00000.775939,-00002.136766,-00000.487597,-00000.551875,00000.176312,-00000.035853,-00000.114761
0000000002997,00001.691376,00001.384387,00001.109516,00001.216662,00002.218369,00002.060388,00002.293331,00002.512081,00001.675405,00000.774836,-00002.142277,-00000.487650,-00000.553979,00000.174764,-00000.036326,-00000.112933
0000000002998,00001.691284,00001.385320,00001.109602,00001.214964,00002.217913,00002.060569,00002.293701,00002.511848,00001.673697,00000.773535,-00002.145518,-00000.488058,-00000.555770,00000.173084,-00000.035641,-00000.111740
0000000002999,00001.691568,00001.386478,00001.110038,00001.213881,00002.218251,00002.060359,00002.294379,00002.512013,00001.672969,00000.772065,-00002.147189,-00000.488768,-00000.556932,00000.172016,-00000.035420,-00000.111087
0000000003000,00001.692127,00001.387219,00001.110253,00001.213640,00002.217999,00002.060348,00002.294612,00002.512454,00001.672606,00000.771212,-00002.147919,-00000.488005,-00000.556902,00000.171519,-00000.035302,-00000.110449
0000000003001,00001.693011,00001.388094,00001.110592,00001.213479,00002.218324,00002.060172,00002.295517,00002.513980,00001.672403,00000.769362,-00002.148870,-00000.485095,-00000.555719,00000.170321,-00000.034769,-00000.108174
0000000003002,00001.694490,00001.388476,00001.110881,00001.214069,00002.218601,00002.060022,00002.296287,00002.515279,00001.671867,00000.767786,-00002.148591,-00000.479716,-00000.553624,00000.167850,-00000.034678,-00000.105512
0000000003003,00001.695386,00001.388802,00001.111126,00001.215296,00002.218111,00002.060619,00002.297306,00002.516748,00001.671048,00000.764631,-00002.148716,-00000.473322,-00000.551114,00000.165021,-00000.035326,-00000.103609
0000000003004,00001.695901,00001.389316,00001.111222,00001.215618,00002.218274,00002.060462,00002.298190,00002.517234,00001.670526,00000.762871,-00002.149705,-00000.470257,-00000.549597,00000.163570,-00000.035229,-00000.102725
0000000003005,00001.696950,00001.389879,00001.110691,00001.215527,00002.218196,00002.059906,00002.298925,00002.518049,00001.668093,00000.758996,-00002.153292,-00000.464907,-00000.546961,00000.161015,-00000.035795,-00000.101962
0000000003006,00001.697833,00001.389987,00001.110479,00001.215524,00002.218010,00002.059909,00002.299220,00002.518754,00001.667742,00000.756918,-00002.156154,-00000.462936,-00000.545816,00000.160254,-00000.036401,-00000.102006
0000000003007,00001.698957,00001.390088,00001.109333,00001.215084,00002.217971,00002.060161,00002.299803,00002.519706,00001.667174,00000.752477,-00002.161322,-00000.459400,-00000.542291,00000.160006,-00000.037519,-00000.102075
0000000003008,00001.699552,00001.390174,00001.108358,00001.214709,00002.217937,00002.059649,00002.300299,00002.520153,00001.666690,00000.748696,-00002.165359,-00000.456027,-00000.539290,00000.159432,-00000.038107,-00000.103222
0000000003009,00001.700421,00001.390610,00001.107890,00001.214027,00002.218272,00002.059939,00002.300721,00002.520897,00001.666278,00000.745114,-00002.168070,-00000.452068,-00000.536735,00000.159306,-00000.038245,-00000.105287
0000000003010,00001.700597,00001.390616,00001.107465,00001.213394,00002.218345,00002.059815,00002.300925,00002.521061,00001.664660,00000.743326,-00002.170226,-00000.450304,-00000.535246,00000.160193,-00000.037945,-00000.106187
0000000003011,00001.700222,00001.389897,00001.106404,00001.210005,00002.214628,00002.059355,00002.300529,00002.521307,00001.662736,00000.738367,-00002.174752,-00000.448284,-00000.531842,00000.162493,-00000.037744,-00000.108174
0000000003012,00001.699178,00001.386384,00001.104413,00001.204581,00002.210375,00002.058601,00002.299828,00002.520065,00001.662186,00000.733419,-00002.176066,-00000.446927,-00000.529669,00000.164452,-00000.039025,-00000.109865
0000000003013,00001.697925,00001.381941,00001.102718,00001.198149,00002.206029,00002.057596,00002.299232,00002.518646,00001.660993,00000.728844,-00002.177185,-00000.445408,-00000.528182,00000.165756,-00000.040115,-00000.112031
0000000003014,00001.697200,00001.380004,00001.101986,00001.194120,00002.204206,00002.057338,00002.298795,00002.517823,00001.660101,00000.726822,-00002.179709,-00000.444541,-00000.527296,00000.166902,-00000.040397,-00000.113549
0000000003015,00001.695516,00001.376510,00001.100652,00001.186704,00002.200415,00002.056521,00002.297989,00002.516011,00001.658492,00000.722140,-00002.184276,-00000.443378,-00000.525800,00000.168931,-00000.040920,-00000.116255
0000000003016,00001.694083,00001.373536,00001.099516,00001.180754,00002.196824,00002.056188,00002.298029,00002.514106,00001.657122,00000.718516,-00002.183811,-00000.441662,-00000.524525,00000.170657,-00000.041366,-00000.119647
0000000003017,00001.692862,00001.371004,00001.098549,00001.175688,00002.194493,00002.055904,00002.298063,00002.513210,00001.656682,00000.716883,-00002.180151,-00000.440201,-00000.524529,00000.170676,-00000.043922,-00000.123260
0000000003018,00001.692792,00001.371317,00001.098474,00001.173816,00002.194146,00002.056122,00002.297696,00002.513156,00001.655741,00000.718715,-00002.175735,-00000.439413,-00000.525105,00000.169565,-00000.046165,-00000.125430
0000000003019,00001.692489,00001.372018,00001.099113,00001.172685,00002.193665,00002.055848,00002.296691,00002.512038,00001.656231,00000.730112,-00002.162028,-00000.433570,-00000.526836,00000.166119,-00000.053812,-00000.129997
0000000003020,00001.691506,00001.373340,00001.100746,00001.173536,00002.192530,00002.055978,00002.296199,00002.511087,00001.657375,00000.742355,-00002.149997,-00000.425694,-00000.528310,00000.164273,-00000.060685,-00000.133523
0000000003021,00001.691330,00001.373963,00001.101710,00001.174425,00002.192132,00002.056217,00002.296006,00002.510881,00001.657831,00000.747649,-00002.144853,-00000.422196,-00000.528947,00000.164020,-00000.062786,-00000.135285
0000000003022,00001.690519,00001.374632,00001.103320,00001.175380,00002.191224,00002.055929,00002.295615,00002.510101,00001.659099,00000.756921,-00002.134651,-00000.417825,-00000.530469,00000.163575,-00000.065422,-00000.138387
0000000003023,00001.690192,00001.375565,00001.105052,00001.176193,00002.190089,00002.056047,00002.295283,00002.509438,00001.659816,00000.762274,-00002.126690,-00000.415556,-00000.531403,00000.163196,-00000.066215,-00000.141027
0000000003024,00001.690384,00001.375929,00001.105570,00001.176599,00002.189677,00002.056263,00002.295118,00002.508946,00001.660145,00000.764021,-00002.123767,-00000.414375,-00000.532168,00000.162666,-00000.066011,-00000.141825
0000000003025,00001.690440,00001.376669,00001.106968,00001.176868,00002.189134,00002.056331,00002.295223,00002.508454,00001.661069,00000.766868,-00002.120690,-00000.413344,-00000.534663,00000.161333,-00000.066716,-00000.142503
0000000003026,00001.690124,00001.377662,00001.107795,00001.176008,00002.188310,00002.056026,00002.295674,00002.507672,00001.661493,00000.766389,-00002.121699,-00000.413192,-00000.535699,00000.161650,-00000.065865,-00000.142718
0000000003027,00001.690000,00001.378283,00001.108181,00001.175235,00002.188171,00002.055897,00002.295897,00002.507357,00001.661696,00000.765676,-00002.123263,-00000.413727,-00000.536246,00000.161537,-00000.064663,-00000.143768
0000000003028,00001.690475,00001.379036,00001.108102,00001.174618,00002.187490,00002.055294,00002.295885,00002.507464,00001.662027,00000.764286,-00002.127517,-00000.414969,-00000.536684,00000.161461,-00000.063755,-00000.143431
0000000003029,00001.690880,00001.380765,00001.108035,00001.174093,00002.186910,00002.055143,00002.296238,00002.507555,00001.662308,00000.763102,-00002.131864,-00000.416752,-00000.537056,00000.161033,-00000.064070,-00000.142420
0000000003030,00001.691401,00001.381500,00001.108004,00001.173860,00002.186764,00002.055458,00002.296355,00002.507565,00001.662422,00000.762535,-00002.134537,-00000.418047,-00000.537352,00000.161048,-00000.063990,-00000.142317
0000000003031,00001.691668,00001.382500,00001.107226,00001.171996,00002.186292,00002.054920,00002.296275,00002.507641,00001.662645,00000.760160,-00002.140380,-00000.421549,-00000.538714,00000.160681,-00000.062819,-00000.142922
0000000003032,00001.691895,00001.383714,00001.105476,00001.170047,00002.185527,00002.054100,00002.296570,00002.506980,00001.662109,00000.755962,-00002.147168,-00000.425619,-00000.540961,00000.159644,-00000.064362,-00000.141623
0000000003033,00001.692451,00001.384022,00001.103985,00001.165486,00002.184151,00002.054127,00002.296095,00002.507144,00001.659838,00000.750575,-00002.155123,-00000.429083,-00000.542148,00000.159124,-00000.064949,-00000.141243
0000000003034,00001.692512,00001.384570,00001.103120,00001.163308,00002.183573,00002.053761,00002.296302,00002.506869,00001.659460,00000.747678,-00002.157912,-00000.431367,-00000.542548,00000.159214,-00000.064858,-00000.141607
0000000003035,00001.693340,00001.384751,00001.101618,00001.158660,00002.182850,00002.053112,00002.296230,00002.507049,00001.657946,00000.742796,-00002.164996,-00000.436516,-00000.543137,00000.158395,-00000.065371,-00000.141955
0000000003036,00001.694044,00001.384905,00001.099975,00001.153615,00002.181509,00002.052923,00002.295806,00002.507202,00001.656295,00000.738278,-00002.174291,-00000.441988,-00000.543638,00000.156972,-00000.065446,-00000.144428
0000000003037,00001.694644,00001.385036,00001.098578,00001.147506,00002.180730,00002.052037,00002.296170,00002.508057,00001.654889,00000.734069,-00002.184743,-00000.447372,-00000.544065,00000.155760,-00000.065510,-00000.146896
0000000003038,00001.694535,00001.385084,00001.097788,00001.144400,00002.180409,00002.051784,00002.296327,00002.508398,00001.654015,00000.732316,-00002.189033,-00000.449736,-00000.543855,00000.155809,-00000.065334,-00000.147654
0000000003039,00001.694336,00001.385914,00001.096353,00001.141112,00002.179794,00002.051429,00002.297339,00002.508713,00001.653311,00000.729356,-00002.194754,-00000.455419,-00000.543887,00000.154771,-00000.066140,-00000.148554
0000000003040,00001.694245,00001.386277,00001.095703,00001.139692,00002.179502,00002.051674,00002.297417,00002.509406,00001.653036,00000.728107,-00002.197079,-00000.457926,-00000.543340,00000.154106,-00000.065919,-00000.149133
0000000003041,00001.694089,00001.386567,00001.094577,00001.134928,00002.179021,00002.051337,00002.297179,00002.509209,00001.652115,00000.725773,-00002.200152,-00000.462754,-00000.543085,00000.151870,-00000.065549,-00000.150901
0000000003042,00001.693594,00001.385725,00001.093619,00001.129784,00002.178249,00002.051049,00002.296977,00002.509403,00001.651331,00000.723060,-00002.202043,-00000.467589,-00000.543594,00000.149966,-00000.065235,-00000.152407
0000000003043,00001.693172,00001.381744,00001.092441,00001.124316,00002.177229,00002.050804,00002.296079,00002.508843,00001.649938,00000.720751,-00002.204015,-00000.472068,-00000.543302,00000.149434,-00000.064241,-00000.153688
0000000003044,00001.692807,00001.380148,00001.091725,00001.122237,00002.177140,00002.050691,00002.296169,00002.508080,00001.649429,00000.719705,-00002.204141,-00000.474039,-00000.543162,00000.149568,-00000.063821,-00000.154251
0000000003045,00001.692139,00001.376633,00001.090103,00001.117892,00002.175922,00002.050499,00002.295754,00002.506628,00001.648681,00000.717895,-00002.205801,-00000.476834,-00000.543297,00000.150183,-00000.063038,-00000.154533
0000000003046,00001.691571,00001.374003,00001.089085,00001.114555,00002.175611,00002.050336,00002.295764,00002.505392,00001.648045,00000.716716,-00002.207215,-00000.478124,-00000.543774,00000.148893,-00000.061645,-00000.155135
0000000003047,00001.691675,00001.372649,00001.088614,00001.113314,00002.175256,00002.050267,00002.295616,00002.505175,00001.647817,00000.716413,-00002.207081,-00000.478525,-00000.544004,00000.147967,-00000.061028,-00000.155201
0000000003048,00001.691176,00001.370249,00001.087454,00001.111021,00002.174681,00002.050138,00002.295284,00002.504518,00001.647309,00000.715092,-00002.206127,-00000.479201,-00000.544013,00000.145555,-00000.059935,-00000.155341
0000000003049,00001.691113,00001.368206,00001.086830,00001.110158,00002.174554,00002.050029,00002.295000,00002.504322,00001.647239,00000.714694,-00002.202050,-00000.479052,-00000.544021,00000.141688,-00000.058641,-00000.154735
0000000003050,00001.691313,00001.367302,00001.086589,00001.110713,00002.174666,00002.050341,00002.294850,00002.504652,00001.646958,00000.714858,-00002.200060,-00000.478623,-00000.544149,00000.139431,-00000.057504,-00000.154487
0000000003051,00001.691593,00001.365697,00001.086456,00001.110258,00002.174542,00002.050927,00002.294631,00002.505161,00001.646578,00000.715220,-00002.196886,-00000.478559,-00000.544863,00000.135386,-00000.056934,-00000.154008
0000000003052,00001.691469,00001.364694,00001.085980,00001.109145,00002.174436,00002.051063,00002.294808,00002.505595,00001.646254,00000.715528,-00002.192732,-00000.479230,-00000.545107,00000.132668,-00000.057538,-00000.153600
0000000003053,00001.691363,00001.363477,00001.085575,00001.107835,00002.174709,00002.051179,00002.294958,00002.505964,00001.645979,00000.715790,-00002.188470,-00000.479076,-00000.545315,00000.130717,-00000.057326,-00000.153979
0000000003054,00001.691485,00001.362961,00001.085356,00001.107045,00002.175206,00002.051014,00002.295265,00002.506105,00001.645892,00000.715927,-00002.187138,-00000.478992,-00000.545781,00000.130033,-00000.057018,-00000.154485
0000000003055,00001.691376,00001.362365,00001.085044,00001.106047,00002.175364,00002.051137,00002.295347,00002.506036,00001.644945,00000.716130,-00002.182982,-00000.479962,-00000.546978,00000.128837,-00000.057972,-00000.154369
0000000003056,00001.691505,00001.361921,00001.085299,00001.105824,00002.175864,00002.051361,00002.295195,00002.506600,00001.644510,00000.716566,-00002.180557,-00000.480593,-00000.547712,00000.128314,-00000.058444,-00000.154521
0000000003057,00001.691394,00001.361117,00001.085358,00001.105370,00002.175924,00002.051433,00002.295288,00002.506820,00001.644131,00000.717037,-00002.177380,-00000.481688,-00000.548259,00000.127011,-00000.057735,-00000.155125
0000000003058,00001.691299,00001.360431,00001.085408,00001.106798,00002.175976,00002.051494,00002.295367,00002.507370,00001.643446,00000.717437,-00002.173224,-00000.481531,-00000.547998,00000.125538,-00000.056768,-00000.156365
0000000003059,00001.691581,00001.359848,00001.085814,00001.108376,00002.176382,00002.051908,00002.295071,00002.508201,00001.642136,00000.719229,-00002.168235,-00000.481760,-00000.547051,00000.124648,-00000.056308,-00000.157058
0000000003060,00001.691754,00001.359584,00001.086025,00001.109049,00002.176744,00002.052143,00002.294945,00002.508572,00001.641196,00000.719908,-00002.165858,-00000.482620,-00000.546654,00000.124441,-00000.056117,-00000.157390
0000000003061,00001.692331,00001.361304,00001.086339,00001.110292,00002.178124,00002.052824,00002.295075,00002.508862,00001.639859,00000.720970,-00002.162690,-00000.483776,-00000.546270,00000.124439,-00000.055028,-00000.157931
0000000003062,00001.692460,00001.363856,00001.086606,00001.111351,00002.179662,00002.053404,00002.295185,00002.509471,00001.638358,00000.721874,-00002.162895,-00000.484034,-00000.544854,00000.125526,-00000.055552,-00000.158391
0000000003063,00001.692569,00001.366391,00001.086108,00001.111889,00002.180609,00002.053534,00002.295642,00002.509626,00001.636717,00000.721918,-00002.165610,-00000.483892,-00000.543648,00000.126451,-00000.055999,-00000.158420
0000000003064,00001.692611,00001.367523,00001.085881,00001.111941,00002.181002,00002.053607,00002.295426,00002.509926,00001.635760,00000.721545,-00002.166789,-00000.483805,-00000.543456,00000.127223,-00000.056223,-00000.158216
0000000003065,00001.693061,00001.369151,00001.086216,00001.112029,00002.181386,00002.053707,00002.295121,00002.510014,00001.633417,00000.721275,-00002.167836,-00000.483333,-00000.542822,00000.128621,-00000.056207,-00000.157908
0000000003066,00001.693807,00001.370899,00001.086502,00001.112104,00002.182439,00002.054518,00002.294862,00002.511177,00001.630334,00000.721046,-00002.166551,-00000.482932,-00000.543370,00000.129449,-00000.055468,-00000.158008
0000000003067,00001.693744,00001.372051,00001.086621,00001.112136,00002.184553,00002.054492,00002.295138,00002.511265,00001.628818,00000.720771,-00002.165039,-00000.482227,-00000.543646,00000.129623,-00000.054546,-00000.158220
0000000003068,00001.693663,00001.373731,00001.086484,00001.112195,00002.185498,00002.054461,00002.295602,00002.511880,00001.625330,00000.719891,-00002.163081,-00000.480539,-00000.543346,00000.129576,-00000.051877,-00000.158637
0000000003069,00001.693956,00001.374798,00001.086729,00001.109705,00002.184489,00002.054797,00002.295271,00002.512403,00001.620547,00000.718416,-00002.162503,-00000.479464,-00000.542728,00000.130988,-00000.049242,-00000.158629
0000000003070,00001.693519,00001.373853,00001.086456,00001.107714,00002.183895,00002.054374,00002.295491,00002.512431,00001.617458,00000.716813,-00002.162788,-00000.478939,-00000.543019,00000.131464,-00000.048093,-00000.158438
0000000003071,00001.693108,00001.371274,00001.085617,00001.102263,00002.182035,00002.053634,00002.295177,00002.512509,00001.611307,00000.713619,-00002.162979,-00000.478465,-00000.543175,00000.131869,-00000.046021,-00000.158460
0000000003072,00001.692033,00001.368353,00001.084540,00001.096171,00002.180452,00002.052279,00002.294910,00002.511488,00001.604256,00000.709811,-00002.163867,-00000.479513,-00000.542219,00000.133665,-00000.044982,-00000.158116
0000000003073,00001.690755,00001.365866,00001.083261,00001.083004,00002.178742,00002.051126,00002.294319,00002.510255,00001.597890,00000.706207,-00002.165711,-00000.481131,-00000.542131,00000.135556,-00000.045549,-00000.158548
0000000003074,00001.689667,00001.363386,00001.082534,00001.071432,00002.177286,00002.050144,00002.293817,00002.508843,00001.592109,00000.703139,-00002.167644,-00000.483959,-00000.542057,00000.137167,-00000.046032,-00000.158554
0000000003075,00001.689562,00001.362475,00001.082229,00001.066020,00002.176866,00002.050084,00002.293798,00002.508786,00001.589430,00000.701921,-00002.167970,-00000.485809,-00000.541651,00000.138240,-00000.046246,-00000.158360
0000000003076,00001.688651,00001.360862,00001.081656,00001.057336,00002.176051,00002.048894,00002.293735,00002.507955,00001.584544,00000.699853,-00002.164488,-00000.489756,-00000.540922,00000.139451,-00000.045537,-00000.158031
0000000003077,00001.688601,00001.359489,00001.081168,00001.052483,00002.174633,00002.048244,00002.292957,00002.507248,00001.580384,00000.697367,-00002.159347,-00000.493116,-00000.539213,00000.137943,-00000.044570,-00000.157387
0000000003078,00001.688559,00001.358321,00001.080753,00001.048715,00002.174151,00002.047691,00002.292294,00002.507009,00001.576843,00000.695976,-00002.155333,-00000.495976,-00000.538484,00000.135933,-00000.043022,-00000.156840
0000000003079,00001.688539,00001.358167,00001.080560,00001.046704,00002.174278,00002.047838,00002.292365,00002.507112,00001.575235,00000.695749,-00002.152849,-00000.497578,-00000.538347,00000.134116,-00000.042347,-00000.156376
0000000003080,00001.688506,00001.359009,00001.079872,00001.044158,00002.173849,00002.047345,00002.292153,00002.507256,00001.572822,00000.695687,-00002.147262,-00000.500501,-00000.538472,00000.130498,-00000.041855,-00000.155616
0000000003081,00001.688478,00001.361539,00001.079650,00001.040902,00002.173846,00002.047288,00002.292335,00002.507741,00001.571131,00000.696723,-00002.142143,-00000.501174,-00000.538216,00000.126330,-00000.042887,-00000.154243
0000000003082,00001.688466,00001.362737,00001.079534,00001.040551,00002.174028,00002.047049,00002.292446,00002.508090,00001.570058,00000.697173,-00002.139480,-00000.500960,-00000.538445,00000.123696,-00000.042984,-00000.153307
0000000003083,00001.688444,00001.364713,00001.079361,00001.039282,00002.174361,00002.047036,00002.292585,00002.508814,00001.568778,00000.697988,-00002.134067,-00000.500114,-00000.539643,00000.118000,-00000.042760,-00000.151553
0000000003084,00001.688062,00001.366395,00001.079215,00001.035300,00002.174282,00002.047025,00002.292703,00002.509067,00001.566962,00000.698318,-00002.132361,-00000.500845,-00000.539939,00000.114965,-00000.042206,-00000.149696
0000000003085,00001.687375,00001.367828,00001.079090,00001.031547,00002.174215,00002.047016,00002.292803,00002.509645,00001.565417,00000.698237,-00002.131272,-00000.502919,-00000.539827,00000.112382,-00000.042823,-00000.147753
