0000000001060,00001.733275,00001.160755,00001.563657,00001.773228,00002.358582,00002.080842,00002.282240,00002.638557,00001.798965,00001.417302,-00000.401654,-00000.068465,-00000.545510,00000.011400,-00000.074877,-00000.125512
0000000001061,00001.732487,00001.160425,00001.563524,00001.772300,00002.358424,00002.080288,00002.282320,00002.637530,00001.798280,00001.417168,-00000.401534,-00000.068090,-00000.545236,00000.011652,-00000.074378,-00000.125614
0000000001062,00001.731669,00001.160477,00001.562966,00001.771486,00002.358319,00002.079795,00002.282445,00002.636569,00001.797749,00001.416969,-00000.401063,-00000.068080,-00000.544933,00000.011519,-00000.073901,-00000.125713
0000000001063,00001.731724,00001.160197,00001.562490,00001.771058,00002.358184,00002.079686,00002.282150,00002.636057,00001.797166,00001.416855,-00000.400235,-00000.068123,-00000.544700,00000.011733,-00000.073477,-00000.126163
0000000001064,00001.731390,00001.159878,00001.562015,00001.771091,00002.358095,00002.079266,00002.282257,00002.635239,00001.797077,00001.416686,-00000.399472,-00000.068115,-00000.544441,00000.011620,-00000.073070,-00000.126248
0000000001065,00001.731074,00001.160002,00001.561609,00001.771089,00002.357980,00002.078811,00002.282369,00002.634803,00001.796943,00001.416588,-00000.398767,-00000.068152,-00000.544243,00000.011440,-00000.072709,-00000.126268
0000000001066,00001.731152,00001.159731,00001.561568,00001.771117,00002.357904,00002.078816,00002.282097,00002.635195,00001.796867,00001.416807,-00000.397754,-00000.068144,-00000.544386,00000.010981,-00000.072363,-00000.126340
0000000001067,00001.731246,00001.159474,00001.561223,00001.771116,00002.357444,00002.078791,00002.282192,00002.635187,00001.796753,00001.416724,-00000.397154,-00000.068176,-00000.544217,00000.010464,-00000.072055,-00000.126357
0000000001068,00001.730950,00001.159243,00001.560824,00001.771140,00002.357379,00002.078433,00002.281960,00002.635158,00001.796689,00001.416548,-00000.397018,-00000.068169,-00000.543975,00000.010436,-00000.071760,-00000.126418
0000000001069,00001.731030,00001.159387,00001.560531,00001.771139,00002.357350,00002.078049,00002.282041,00002.635151,00001.796592,00001.416477,-00000.396870,-00000.068196,-00000.543832,00000.010359,-00000.071862,-00000.126070
0000000001070,00001.731141,00001.159553,00001.560192,00001.771159,00002.356932,00002.078107,00002.282207,00002.635127,00001.796537,00001.416327,-00000.396754,-00000.067828,-00000.543626,00000.010336,-00000.071611,-00000.126122
0000000001071,00001.731209,00001.159312,00001.559942,00001.771158,00002.356544,00002.078143,00002.281913,00002.635121,00001.796454,00001.416267,-00000.396265,-00000.067851,-00000.543504,00000.010270,-00000.071697,-00000.126552
0000000001072,00001.731303,00001.159091,00001.559653,00001.771538,00002.356189,00002.078192,00002.281691,00002.635100,00001.796407,00001.416139,-00000.395803,-00000.067900,-00000.543329,00000.010250,-00000.071846,-00000.126959
0000000001073,00001.731361,00001.159249,00001.559803,00001.771537,00002.356221,00002.078222,00002.281804,00002.635457,00001.796337,00001.416088,-00000.395750,-00000.067557,-00000.543225,00000.010194,-00000.071919,-00000.126961
0000000001074,00001.731804,00001.159424,00001.559920,00001.771861,00002.356281,00002.078990,00002.281978,00002.635802,00001.796297,00001.415979,-00000.395720,-00000.067599,-00000.542713,00000.010177,-00000.072046,-00000.126582
0000000001075,00001.732216,00001.159558,00001.560048,00001.772223,00002.356309,00002.079742,00002.281711,00002.636107,00001.795875,00001.416299,-00000.395312,-00000.067306,-00000.542625,00000.010129,-00000.072471,-00000.126222
0000000001076,00001.732594,00001.159707,00001.560148,00001.772861,00002.356360,00002.080395,00002.281859,00002.636400,00001.795841,00001.416206,-00000.394923,-00000.066980,-00000.542189,00000.010115,-00000.072580,-00000.125899
0000000001077,00001.732944,00001.159822,00001.560619,00001.773532,00002.357110,00002.080672,00002.281995,00002.637023,00001.796206,00001.416478,-00000.394576,-00000.066731,-00000.541751,00000.010437,-00000.072579,-00000.125592
0000000001078,00001.733265,00001.159948,00001.560704,00001.774076,00002.357879,00002.080866,00002.282121,00002.637273,00001.796540,00001.416762,-00000.394245,-00000.066452,-00000.541743,00000.010787,-00000.072671,-00000.125681
0000000001079,00001.733564,00001.160046,00001.560743,00001.775010,00002.358154,00002.081464,00002.282237,00002.637439,00001.796852,00001.416993,-00000.393586,-00000.066240,-00000.541733,00000.010699,-00000.072670,-00000.125782
0000000001080,00001.734200,00001.160516,00001.560815,00001.776198,00002.358809,00002.081992,00002.282707,00002.638015,00001.797499,00001.417235,-00000.392942,-00000.066366,-00000.541726,00000.010635,-00000.072386,-00000.125857
0000000001081,00001.734817,00001.160599,00001.561210,00001.776993,00002.359043,00002.082501,00002.282442,00002.638883,00001.797764,00001.417794,-00000.392744,-00000.066549,-00000.541717,00000.010196,-00000.072022,-00000.125581
0000000001082,00001.735359,00001.161362,00001.561635,00001.778005,00002.359600,00002.082950,00002.282480,00002.639735,00001.797952,00001.418363,-00000.392921,-00000.066656,-00000.541711,00000.010142,-00000.072143,-00000.125282
0000000001083,00001.735884,00001.162521,00001.561972,00001.779044,00002.360162,00002.083384,00002.282980,00002.640111,00001.798540,00001.418477,-00000.393478,-00000.066811,-00000.541704,00000.010131,-00000.072196,-00000.124684
0000000001084,00001.736345,00001.163897,00001.562333,00001.779905,00002.360637,00002.083766,00002.283375,00002.640837,00001.798700,00001.418961,-00000.393992,-00000.066902,-00000.541699,00000.010085,-00000.071936,-00000.124429
0000000001085,00001.736792,00001.165246,00001.562982,00001.780790,00002.361115,00002.084136,00002.283801,00002.641520,00001.799201,00001.419420,-00000.394466,-00000.067034,-00000.541692,00000.009713,-00000.071619,-00000.124646
0000000001086,00001.737548,00001.166417,00001.563653,00001.781886,00002.361519,00002.084461,00002.284137,00002.642500,00001.799700,00001.419832,-00000.394541,-00000.067112,-00000.542051,00000.009673,-00000.071398,-00000.125155
0000000001087,00001.738291,00001.167566,00001.564205,00001.783365,00002.362289,00002.085138,00002.284499,00002.643444,00001.800127,00001.420224,-00000.394219,-00000.067225,-00000.542046,00000.009720,-00000.071127,-00000.125702
0000000001088,00001.738934,00001.168563,00001.564776,00001.784661,00002.362996,00002.085778,00002.284785,00002.644642,00001.800552,00001.420937,-00000.394282,-00000.067291,-00000.541988,00000.009686,-00000.070939,-00000.125772
0000000001089,00001.739567,00001.169541,00001.565247,00001.785920,00002.363289,00002.086355,00002.284731,00002.645809,00001.800915,00001.421633,-00000.394371,-00000.067387,-00000.541983,00000.010089,-00000.070709,-00000.125512
0000000001090,00001.740114,00001.170389,00001.565733,00001.787023,00002.363528,00002.086899,00002.284975,00002.646828,00001.801277,00001.422240,-00000.394425,-00000.067443,-00000.541934,00000.010060,-00000.070911,-00000.125209
0000000001091,00001.740653,00001.171585,00001.566133,00001.788095,00002.364140,00002.087390,00002.285654,00002.647821,00001.801586,00001.422833,-00000.394863,-00000.067524,-00000.541931,00000.010402,-00000.071078,-00000.124988
0000000001092,00001.741119,00001.172670,00001.566910,00001.789034,00002.364706,00002.087854,00002.286224,00002.648689,00001.801894,00001.422987,-00000.395635,-00000.067209,-00000.541889,00000.010378,-00000.071613,-00000.125093
0000000001093,00001.741578,00001.174050,00001.567251,00001.789946,00002.364864,00002.088634,00002.286440,00002.649535,00001.802157,00001.423492,-00000.396371,-00000.066916,-00000.541523,00000.010307,-00000.072118,-00000.124905
0000000001094,00001.741974,00001.175699,00001.567549,00001.791109,00002.364983,00002.089029,00002.286925,00002.650273,00001.802782,00001.423986,-00000.397027,-00000.066648,-00000.541124,00000.010286,-00000.072211,-00000.124269
0000000001095,00001.742365,00001.176875,00001.567839,00001.792611,00002.365481,00002.089693,00002.287472,00002.651719,00001.802643,00001.424415,-00000.397291,-00000.066398,-00000.540813,00000.010225,-00000.072278,-00000.124108
0000000001096,00001.742703,00001.178279,00001.568093,00001.794326,00002.365945,00002.090392,00002.288248,00002.652711,00001.803175,00001.424836,-00000.397487,-00000.066170,-00000.540836,00000.010208,-00000.071994,-00000.124292
0000000001097,00001.743035,00001.178916,00001.568340,00001.795242,00002.366006,00002.090958,00002.288713,00002.653578,00001.803782,00001.424838,-00000.397349,-00000.066320,-00000.540571,00000.010156,-00000.071689,-00000.124519
0000000001098,00001.742597,00001.179023,00001.568556,00001.795251,00002.366038,00002.090827,00002.288648,00002.653334,00001.803872,00001.424471,-00000.397516,-00000.066126,-00000.540229,00000.010504,-00000.071447,-00000.124313
0000000001099,00001.742154,00001.178478,00001.568404,00001.794580,00002.365727,00002.090583,00002.288318,00002.652984,00001.803664,00001.423748,-00000.398124,-00000.065891,-00000.540003,00000.010823,-00000.071187,-00000.124142
0000000001100,00001.741419,00001.177843,00001.567862,00001.792773,00002.365029,00002.089747,00002.287900,00002.651688,00001.803378,00001.422709,-00000.398629,-00000.065726,-00000.539711,00000.011118,-00000.071344,-00000.123604
0000000001101,00001.740316,00001.176290,00001.567370,00001.790751,00002.364402,00002.088450,00002.287620,00002.650665,00001.802837,00001.421731,-00000.399510,-00000.065526,-00000.539519,00000.011390,-00000.071848,-00000.123097
0000000001102,00001.739327,00001.173936,00001.566546,00001.788487,00002.363807,00002.087375,00002.286901,00002.649198,00001.801505,00001.420484,-00000.400302,-00000.065385,-00000.539270,00000.011279,-00000.072344,-00000.122638
0000000001103,00001.738389,00001.171163,00001.565764,00001.786040,00002.363273,00002.086272,00002.286299,00002.648327,00001.800320,00001.419651,-00000.400689,-00000.065215,-00000.539107,00000.011147,-00000.072773,-00000.122569
0000000001104,00001.737547,00001.168071,00001.565062,00001.783387,00002.362404,00002.085357,00002.285325,00002.647079,00001.798823,00001.418952,-00000.401001,-00000.065095,-00000.538895,00000.011416,-00000.072833,-00000.122542
0000000001105,00001.736385,00001.165347,00001.564397,00001.780941,00002.361587,00002.084054,00002.284812,00002.645612,00001.797451,00001.418243,-00000.401330,-00000.064950,-00000.538756,00000.011667,-00000.073199,-00000.122483
0000000001106,00001.735305,00001.162714,00001.563799,00001.778683,00002.360847,00002.082912,00002.284345,00002.644186,00001.796177,00001.417648,-00000.401596,-00000.064848,-00000.538576,00000.011895,-00000.073250,-00000.122459
0000000001107,00001.734316,00001.160396,00001.562870,00001.776238,00002.359788,00002.082167,00002.283909,00002.642937,00001.795009,00001.417045,-00000.402239,-00000.064724,-00000.538457,00000.012109,-00000.073198,-00000.122046
0000000001108,00001.733034,00001.158155,00001.561999,00001.773953,00002.359159,00002.081195,00002.283512,00002.641724,00001.794287,00001.416176,-00000.403191,-00000.064638,-00000.538304,00000.012303,-00000.073604,-00000.121664
0000000001109,00001.731830,00001.156181,00001.561208,00001.771871,00002.358620,00002.080197,00002.283141,00002.640298,00001.793293,00001.415662,-00000.404101,-00000.064533,-00000.538203,00000.012485,-00000.073923,-00000.120949
0000000001110,00001.730738,00001.154273,00001.560466,00001.769926,00002.357722,00002.079369,00002.282440,00002.639628,00001.792316,00001.415285,-00000.405274,-00000.064096,-00000.538073,00000.012650,-00000.074268,-00000.120261
0000000001111,00001.729713,00001.152593,00001.559792,00001.768153,00002.357263,00002.078520,00002.282124,00002.638776,00001.791469,00001.414847,-00000.406049,-00000.063644,-00000.537987,00000.012805,-00000.074540,-00000.119653
0000000001112,00001.728784,00001.151331,00001.559161,00001.766135,00002.356861,00002.077816,00002.281527,00002.637843,00001.790637,00001.414526,-00000.406684,-00000.063635,-00000.537876,00000.013309,-00000.074834,-00000.119066
0000000001113,00001.727548,00001.150264,00001.558225,00001.764626,00002.356471,00002.076730,00002.281258,00002.636393,00001.789917,00001.414154,-00000.407344,-00000.063612,-00000.537803,00000.013803,-00000.075065,-00000.118912
0000000001114,00001.726757,00001.149190,00001.557324,00001.763633,00002.355765,00002.076130,00002.281112,00002.635235,00001.788845,00001.413518,-00000.407885,-00000.063605,-00000.537708,00000.014232,-00000.075316,-00000.118775
0000000001115,00001.726068,00001.148644,00001.556890,00001.762711,00002.355070,00002.075569,00002.280520,00002.634001,00001.788232,00001.412838,-00000.408447,-00000.063586,-00000.537646,00000.014290,-00000.075512,-00000.118643
0000000001116,00001.725395,00001.148455,00001.556487,00001.761503,00002.354833,00002.075058,00002.280397,00002.633016,00001.788046,00001.412659,-00000.408907,-00000.063579,-00000.537565,00000.014293,-00000.075363,-00000.118528
0000000001117,00001.725171,00001.149079,00001.556117,00001.760356,00002.354604,00002.074580,00002.279893,00002.632327,00001.787524,00001.412443,-00000.409385,-00000.063200,-00000.537150,00000.014342,-00000.075167,-00000.118052
0000000001118,00001.724597,00001.149644,00001.555773,00001.759690,00002.354401,00002.074145,00002.279788,00002.632214,00001.787365,00001.412291,-00000.409778,-00000.063195,-00000.537081,00000.014707,-00000.075403,-00000.117591
0000000001119,00001.724044,00001.150175,00001.555459,00001.758714,00002.354207,00002.073738,00002.279721,00002.631628,00001.787283,00001.412107,-00000.410185,-00000.063235,-00000.537090,00000.015112,-00000.075237,-00000.117187
0000000001120,00001.723556,00001.150656,00001.555166,00001.758147,00002.354034,00002.073368,00002.279632,00002.631169,00001.787148,00001.411978,-00000.410156,-00000.063230,-00000.537032,00000.015422,-00000.075074,-00000.116794
0000000001121,00001.723448,00001.151108,00001.555261,00001.758041,00002.353868,00002.073385,00002.279576,00002.630670,00001.787079,00001.411821,-00000.409777,-00000.063265,-00000.537039,00000.015767,-00000.074933,-00000.116812
0000000001122,00001.723395,00001.151517,00001.555375,00001.757559,00002.354085,00002.073070,00002.279499,00002.630642,00001.786601,00001.411711,-00000.409389,-00000.063261,-00000.536989,00000.016031,-00000.074432,-00000.116841
0000000001123,00001.723666,00001.151902,00001.555819,00001.757468,00002.354306,00002.073084,00002.279451,00002.630943,00001.786542,00001.411578,-00000.409066,-00000.063290,-00000.536996,00000.016325,-00000.073948,-00000.116856
0000000001124,00001.723621,00001.152250,00001.555915,00001.757421,00002.354490,00002.072815,00002.279749,00002.630557,00001.786498,00001.411484,-00000.408737,-00000.063286,-00000.536954,00000.016550,-00000.073522,-00000.116880
0000000001125,00001.723488,00001.152941,00001.555930,00001.757344,00002.354316,00002.072827,00002.280071,00002.630087,00001.786810,00001.411370,-00000.408825,-00000.063311,-00000.536959,00000.016800,-00000.073473,-00000.116894
0000000001126,00001.723813,00001.153237,00001.556375,00001.757303,00002.354473,00002.072962,00002.280325,00002.630484,00001.787136,00001.411653,-00000.408907,-00000.063308,-00000.536923,00000.016991,-00000.073473,-00000.116914
0000000001127,00001.724063,00001.153825,00001.556751,00001.757601,00002.354687,00002.072972,00002.280599,00002.631172,00001.787402,00001.411920,-00000.408619,-00000.063330,-00000.536928,00000.017204,-00000.073432,-00000.116926
0000000001128,00001.724340,00001.154440,00001.557130,00001.757929,00002.354821,00002.073086,00002.280815,00002.631510,00001.788041,00001.412160,-00000.408326,-00000.063327,-00000.536897,00000.017367,-00000.073431,-00000.116580
0000000001129,00001.724915,00001.154941,00001.557450,00001.758182,00002.354641,00002.073458,00002.280685,00002.632096,00001.788268,00001.412387,-00000.408081,-00000.063345,-00000.536901,00000.017548,-00000.073396,-00000.116227
0000000001130,00001.725513,00001.155465,00001.557772,00001.758824,00002.354391,00002.074644,00002.280506,00002.632746,00001.788813,00001.412592,-00000.407832,-00000.063343,-00000.536875,00000.017687,-00000.073033,-00000.116296
0000000001131,00001.726366,00001.156253,00001.558044,00001.760128,00002.354963,00002.075323,00002.280759,00002.632883,00001.789368,00001.412785,-00000.407623,-00000.063358,-00000.537241,00000.017841,-00000.072640,-00000.115996
0000000001132,00001.727238,00001.156699,00001.558319,00001.761037,00002.355114,00002.076332,00002.280969,00002.633073,00001.789832,00001.413322,-00000.407773,-00000.063356,-00000.537219,00000.017959,-00000.072694,-00000.115691
0000000001133,00001.727601,00001.157008,00001.558551,00001.761422,00002.355238,00002.076910,00002.280821,00002.633190,00001.789579,00001.413849,-00000.408321,-00000.063369,-00000.537168,00000.018090,-00000.072722,-00000.115436
0000000001134,00001.728344,00001.157388,00001.559147,00001.762196,00002.355367,00002.077407,00002.280638,00002.633715,00001.789974,00001.414307,-00000.408812,-00000.063368,-00000.537149,00000.018191,-00000.073131,-00000.115177
0000000001135,00001.728653,00001.158013,00001.559344,00001.762523,00002.355472,00002.077899,00002.280875,00002.633813,00001.790484,00001.414393,-00000.409279,-00000.063379,-00000.537105,00000.018303,-00000.073518,-00000.115322
0000000001136,00001.729285,00001.158699,00001.559852,00001.762820,00002.355582,00002.078322,00002.280718,00002.634260,00001.790820,00001.414782,-00000.410060,-00000.063378,-00000.537089,00000.018388,-00000.073866,-00000.115464
0000000001137,00001.729911,00001.159232,00001.560383,00001.763461,00002.356035,00002.078740,00002.280920,00002.634345,00001.791255,00001.415218,-00000.410457,-00000.063387,-00000.537052,00000.018483,-00000.074195,-00000.115587
0000000001138,00001.730449,00001.160178,00001.560453,00001.764439,00002.356490,00002.079463,00002.281512,00002.634362,00001.791904,00001.415550,-00000.410396,-00000.063386,-00000.537039,00000.018556,-00000.074491,-00000.115346
0000000001139,00001.730982,00001.160994,00001.560904,00001.765710,00002.356876,00002.079820,00002.281684,00002.634797,00001.792636,00001.415921,-00000.410371,-00000.063394,-00000.537007,00000.018637,-00000.074409,-00000.115088
0000000001140,00001.731439,00001.161438,00001.561326,00001.766906,00002.357264,00002.080435,00002.281826,00002.635175,00001.793552,00001.416203,-00000.410682,-00000.063393,-00000.537358,00000.018699,-00000.075024,-00000.114882
0000000001141,00001.731893,00001.162132,00001.562074,00001.767625,00002.357955,00002.080739,00002.282335,00002.635544,00001.794175,00001.416519,-00000.411024,-00000.063400,-00000.537331,00000.018768,-00000.075679,-00000.114663
0000000001142,00001.732646,00001.162872,00001.562796,00001.768643,00002.358285,00002.081625,00002.282455,00002.636229,00001.794592,00001.417122,-00000.411651,-00000.063399,-00000.537267,00000.018821,-00000.076203,-00000.114851
0000000001143,00001.733032,00001.164190,00001.563432,00001.769618,00002.358873,00002.082246,00002.282889,00002.636907,00001.795123,00001.417753,-00000.412305,-00000.063405,-00000.537245,00000.018880,-00000.076761,-00000.115027
0000000001144,00001.733673,00001.165908,00001.564047,00001.770484,00002.359517,00002.082638,00002.283354,00002.637489,00001.795477,00001.418267,-00000.412839,-00000.063404,-00000.537190,00000.018925,-00000.077206,-00000.114824
0000000001145,00001.734002,00001.167392,00001.564226,00001.771315,00002.360018,00002.082804,00002.283723,00002.638066,00001.795929,00001.418442,-00000.413395,-00000.063409,-00000.537171,00000.018975,-00000.077319,-00000.114973
0000000001146,00001.734184,00001.169218,00001.564386,00001.772052,00002.360566,00002.083138,00002.284119,00002.638199,00001.796594,00001.418516,-00000.413850,-00000.063409,-00000.537125,00000.019013,-00000.076972,-00000.115163
0000000001147,00001.734827,00001.170481,00001.564538,00001.772759,00002.360630,00002.083642,00002.284070,00002.638691,00001.796979,00001.418665,-00000.414324,-00000.063413,-00000.537471,00000.019055,-00000.077068,-00000.114928
0000000001148,00001.734620,00001.170947,00001.564675,00001.772661,00002.360734,00002.083563,00002.284408,00002.638441,00001.797181,00001.418003,-00000.415074,-00000.063413,-00000.537431,00000.019088,-00000.077136,-00000.114727
0000000001149,00001.734441,00001.170208,00001.564442,00001.771449,00002.360425,00002.083267,00002.284003,00002.637771,00001.797146,00001.417404,-00000.416203,-00000.063416,-00000.537363,00000.019124,-00000.077580,-00000.114527
0000000001150,00001.733902,00001.169516,00001.563833,00001.770278,00002.359788,00002.082837,00002.283565,00002.636833,00001.796593,00001.416840,-00000.417204,-00000.063416,-00000.537330,00000.019152,-00000.078001,-00000.114356
0000000001151,00001.732299,00001.168525,00001.562908,00001.768520,00002.359162,00002.081859,00002.283221,00002.635900,00001.795838,00001.416330,-00000.418165,-00000.063419,-00000.537272,00000.019183,-00000.078379,-00000.114185
0000000001152,00001.730751,00001.166485,00001.561664,00001.766071,00002.357894,00002.080768,00002.282485,00002.634376,00001.794642,00001.415487,-00000.419017,-00000.063418,-00000.537606,00000.019206,-00000.078737,-00000.114039
0000000001153,00001.729024,00001.164190,00001.560152,00001.763487,00002.356999,00002.079572,00002.282192,00002.632130,00001.793636,00001.414691,-00000.419473,-00000.063421,-00000.537557,00000.019233,-00000.079059,-00000.113894
0000000001154,00001.727707,00001.161727,00001.559093,00001.761040,00002.356282,00002.078643,00002.281565,00002.629381,00001.792254,00001.413973,-00000.419835,-00000.063421,-00000.537478,00000.019253,-00000.079364,-00000.113770
0000000001155,00001.726236,00001.159411,00001.557805,00001.758839,00002.355520,00002.077626,00002.281315,00002.626381,00001.791398,00001.412932,-00000.419860,-00000.063423,-00000.537437,00000.019275,-00000.079638,-00000.113647
0000000001156,00001.724752,00001.156952,00001.556541,00001.756756,00002.354910,00002.076835,00002.280782,00002.624041,00001.789860,00001.412321,-00000.419806,-00000.063423,-00000.537370,00000.019292,-00000.079535,-00000.113178
0000000001157,00001.723862,00001.154617,00001.555445,00001.754520,00002.353898,00002.076331,00002.280207,00002.621124,00001.788768,00001.411798,-00000.420190,-00000.063425,-00000.537334,00000.019311,-00000.079768,-00000.112710
0000000001158,00001.722599,00001.152886,00001.554368,00001.752384,00002.353379,00002.075658,00002.279753,00002.618407,00001.788183,00001.411278,-00000.420870,-00000.063062,-00000.536915,00000.019689,-00000.080043,-00000.112312
0000000001159,00001.721479,00001.151261,00001.553435,00001.750118,00002.352880,00002.074866,00002.279263,00002.615924,00001.787254,00001.410832,-00000.421559,-00000.063063,-00000.536521,00000.020068,-00000.080241,-00000.111913
0000000001160,00001.720404,00001.149788,00001.552519,00001.747936,00002.352438,00002.073930,00002.278877,00002.613247,00001.786394,00001.410390,-00000.422138,-00000.063117,-00000.536164,00000.020389,-00000.080475,-00000.111574
0000000001161,00001.719450,00001.148767,00001.551725,00001.746007,00002.351651,00002.073619,00002.278097,00002.610771,00001.785603,00001.410010,-00000.422725,-00000.062755,-00000.535830,00000.020711,-00000.080282,-00000.111235
0000000001162,00001.718535,00001.148239,00001.551307,00001.744513,00002.351275,00002.072822,00002.277405,00002.609218,00001.784870,00001.409633,-00000.423218,-00000.062801,-00000.535526,00000.020985,-00000.080118,-00000.110946
0000000001163,00001.717723,00001.147733,00001.550631,00001.742870,00002.350967,00002.072195,00002.276741,00002.607835,00001.784197,00001.409311,-00000.423717,-00000.062856,-00000.535241,00000.021260,-00000.079590,-00000.110657
0000000001164,00001.716944,00001.147283,00001.549913,00001.741236,00002.350647,00002.071517,00002.276515,00002.606514,00001.783936,00001.408990,-00000.424137,-00000.062895,-00000.535345,00000.021492,-00000.079451,-00000.110411
0000000001165,00001.715890,00001.147215,00001.549337,00001.739837,00002.350385,00002.070982,00002.276313,00002.605336,00001.783726,00001.408715,-00000.424925,-00000.062942,-00000.535465,00000.022089,-00000.079365,-00000.110165
0000000001166,00001.715226,00001.146832,00001.548726,00001.738808,00002.350113,00002.070768,00002.275758,00002.604937,00001.783141,00001.408804,-00000.425645,-00000.062613,-00000.535190,00000.022287,-00000.079246,-00000.109956
0000000001167,00001.714692,00001.147137,00001.548236,00001.737618,00002.349890,00002.070313,00002.275586,00002.605023,00001.782599,00001.408933,-00000.426316,-00000.062653,-00000.535293,00000.022432,-00000.079535,-00000.109746
0000000001168,00001.714127,00001.147536,00001.547716,00001.736742,00002.349295,00002.069767,00002.275113,00002.604683,00001.781738,00001.409010,-00000.426929,-00000.062735,-00000.535059,00000.022601,-00000.079797,-00000.109205
0000000001169,00001.713310,00001.148158,00001.547299,00001.736092,00002.349105,00002.069380,00002.274966,00002.604031,00001.781640,00001.408756,-00000.427500,-00000.062406,-00000.534784,00000.023087,-00000.080043,-00000.109027
0000000001170,00001.712829,00001.148861,00001.546856,00001.735346,00002.348599,00002.069279,00002.274927,00002.603378,00001.781633,00001.408459,-00000.428021,-00000.062476,-00000.534948,00000.023594,-00000.080266,-00000.108929
0000000001171,00001.712496,00001.149028,00001.546863,00001.734792,00002.348437,00002.068949,00002.274439,00002.603548,00001.781186,00001.408606,-00000.428508,-00000.062559,-00000.534713,00000.024008,-00000.080113,-00000.109141
0000000001172,00001.712086,00001.149627,00001.546486,00001.734520,00002.348369,00002.068500,00002.274405,00002.603356,00001.781543,00001.408715,-00000.428589,-00000.062256,-00000.534490,00000.024439,-00000.079940,-00000.109420
0000000001173,00001.711803,00001.149769,00001.546130,00001.734412,00002.348232,00002.068219,00002.274353,00002.603864,00001.781525,00001.408841,-00000.428640,-00000.061963,-00000.534653,00000.025154,-00000.079447,-00000.109237
0000000001174,00001.711454,00001.150278,00001.545809,00001.734180,00002.348173,00002.067837,00002.274324,00002.604788,00001.781466,00001.408934,-00000.429072,-00000.062068,-00000.534463,00000.025521,-00000.078937,-00000.109112
0000000001175,00001.711575,00001.150399,00001.545505,00001.734088,00002.348056,00002.067961,00002.274280,00002.605583,00001.781451,00001.409040,-00000.429479,-00000.061819,-00000.534239,00000.026130,-00000.078880,-00000.108956
0000000001176,00001.711642,00001.150833,00001.545595,00001.733891,00002.348007,00002.067635,00002.274255,00002.606370,00001.781401,00001.409119,-00000.429846,-00000.061546,-00000.534077,00000.026805,-00000.079171,-00000.108850
0000000001177,00001.711382,00001.151299,00001.545337,00001.733812,00002.347907,00002.067378,00002.274217,00002.606684,00001.781388,00001.408848,-00000.430192,-00000.061334,-00000.533886,00000.027324,-00000.079485,-00000.108355
0000000001178,00001.711438,00001.151668,00001.545413,00001.734007,00002.348228,00002.067463,00002.274197,00002.607717,00001.781346,00001.408915,-00000.430505,-00000.061101,-00000.533749,00000.027536,-00000.079733,-00000.108264
0000000001179,00001.711217,00001.152065,00001.545556,00001.734665,00002.348143,00002.067607,00002.274164,00002.608347,00001.781698,00001.409046,-00000.430800,-00000.060920,-00000.533586,00000.027614,-00000.079638,-00000.108205
0000000001180,00001.711265,00001.152379,00001.545621,00001.735557,00002.348053,00002.068043,00002.274509,00002.609226,00001.782024,00001.409104,-00000.430341,-00000.061085,-00000.533832,00000.027795,-00000.079486,-00000.108128
0000000001181,00001.711440,00001.152716,00001.545742,00001.736843,00002.348344,00002.068165,00002.274845,00002.609763,00001.782324,00001.409215,-00000.430229,-00000.061294,-00000.534056,00000.028224,-00000.079405,-00000.108078
0000000001182,00001.711481,00001.152984,00001.546160,00001.737965,00002.348630,00002.068173,00002.275138,00002.610511,00001.782601,00001.409627,-00000.430201,-00000.061434,-00000.533903,00000.028741,-00000.079276,-00000.108012
0000000001183,00001.711630,00001.153634,00001.546627,00001.739060,00002.348878,00002.068277,00002.275424,00002.610968,00001.783219,00001.409722,-00000.430468,-00000.061612,-00000.534094,00000.029106,-00000.079570,-00000.107970
0000000001184,00001.711664,00001.154225,00001.547346,00001.740015,00002.349484,00002.068284,00002.275674,00002.611242,00001.783819,00001.410073,-00000.430444,-00000.061732,-00000.534326,00000.029546,-00000.079460,-00000.107914
0000000001185,00001.711791,00001.154778,00001.548468,00001.740947,00002.350057,00002.068373,00002.275917,00002.611994,00001.784345,00001.410516,-00000.430309,-00000.061883,-00000.534489,00000.029857,-00000.079347,-00000.107877
0000000001186,00001.712183,00001.155281,00001.549443,00001.742123,00002.350211,00002.068742,00002.276130,00002.612953,00001.785218,00001.410815,-00000.429926,-00000.061985,-00000.534686,00000.030232,-00000.078891,-00000.107830
0000000001187,00001.713017,00001.155752,00001.550398,00001.743279,00002.350699,00002.069543,00002.276337,00002.614318,00001.785665,00001.411555,-00000.429448,-00000.062114,-00000.534825,00000.030497,-00000.078432,-00000.107799
0000000001188,00001.713713,00001.156180,00001.551228,00001.744643,00002.350830,00002.070582,00002.276881,00002.615135,00001.786409,00001.411809,-00000.429122,-00000.062200,-00000.534993,00000.031178,-00000.078044,-00000.107759
0000000001189,00001.714060,00001.156581,00001.552042,00001.745627,00002.350883,00002.071264,00002.277057,00002.615934,00001.786790,00001.412077,-00000.429078,-00000.062310,-00000.535111,00000.031766,-00000.077653,-00000.107732
0000000001190,00001.714653,00001.156946,00001.552748,00001.746788,00002.350994,00002.072149,00002.277157,00002.616630,00001.787423,00001.412293,-00000.429163,-00000.062384,-00000.535254,00000.032709,-00000.077685,-00000.107335
0000000001191,00001.715311,00001.157287,00001.553803,00001.747626,00002.351402,00002.072367,00002.277307,00002.617673,00001.787747,00001.412884,-00000.429488,-00000.062477,-00000.535354,00000.033936,-00000.077715,-00000.106950
0000000001192,00001.715453,00001.157960,00001.554405,00001.748252,00002.351859,00002.072394,00002.277755,00002.617902,00001.788286,00001.413068,-00000.429561,-00000.062540,-00000.535476,00000.035827,-00000.077743,-00000.106612
0000000001193,00001.715651,00001.158251,00001.555303,00001.748965,00002.352206,00002.072943,00002.277883,00002.618428,00001.788199,00001.413571,-00000.429112,-00000.062619,-00000.535561,00000.037597,-00000.077406,-00000.106284
0000000001194,00001.715772,00001.158461,00001.556178,00001.749498,00002.352596,00002.073692,00002.278265,00002.619348,00001.788658,00001.413727,-00000.428811,-00000.062673,-00000.535665,00000.039206,-00000.076703,-00000.106359
0000000001195,00001.715940,00001.158708,00001.556580,00001.750468,00002.352528,00002.074521,00002.278373,00002.620158,00001.789309,00001.413793,-00000.428792,-00000.062741,-00000.535738,00000.040713,-00000.076054,-00000.106442
0000000001196,00001.716406,00001.158887,00001.557324,00001.750921,00002.352497,00002.074796,00002.278335,00002.620942,00001.789700,00001.413200,-00000.429261,-00000.062786,-00000.535826,00000.042084,-00000.075819,-00000.106143
0000000001197,00001.716186,00001.158735,00001.557667,00001.751384,00002.352077,00002.074777,00002.278428,00002.620906,00001.789529,00001.412893,-00000.429608,-00000.062844,-00000.535888,00000.043729,-00000.075628,-00000.105489
0000000001198,00001.715494,00001.157436,00001.557938,00001.750682,00002.352050,00002.073922,00002.278033,00002.620485,00001.789136,00001.412752,-00000.430007,-00000.062882,-00000.535963,00000.045258,-00000.075065,-00000.104871
0000000001199,00001.714581,00001.155493,00001.557866,00001.749262,00002.352056,00002.073543,00002.277749,00002.619003,00001.788628,00001.412128,-00000.430302,-00000.062931,-00000.536016,00000.046659,-00000.074903,-00000.104314
0000000001200,00001.713629,00001.152936,00001.557372,00001.747938,00002.351670,00002.073179,00002.277412,00002.616105,00001.787930,00001.411644,-00000.429917,-00000.063327,-00000.536080,00000.047598,-00000.074424,-00000.104151
0000000001201,00001.712127,00001.150193,00001.556585,00001.746367,00002.351312,00002.072493,00002.276808,00002.612304,00001.787135,00001.409662,-00000.429442,-00000.063369,-00000.536125,00000.048428,-00000.074286,-00000.104040
0000000001202,00001.710591,00001.147653,00001.555438,00001.744515,00002.350621,00002.071820,00002.276159,00002.608748,00001.786178,00001.407437,-00000.429114,-00000.063343,-00000.535817,00000.048865,-00000.074241,-00000.103901
0000000001203,00001.708949,00001.144593,00001.554406,00001.742088,00002.349953,00002.071236,00002.275644,00002.605512,00001.785501,00001.405023,-00000.429073,-00000.063379,-00000.535855,00000.049571,-00000.074124,-00000.103807
0000000001204,00001.707279,00001.141705,00001.553430,00001.739423,00002.349365,00002.070300,00002.275091,00002.602123,00001.784687,00001.402766,-00000.429519,-00000.063356,-00000.535955,00000.050305,-00000.074448,-00000.103689
0000000001205,00001.705881,00001.138737,00001.552551,00001.736995,00002.348433,00002.069803,00002.274653,00002.599005,00001.784111,00001.400349,-00000.429847,-00000.063387,-00000.535988,00000.050907,-00000.074348,-00000.103608
0000000001206,00001.704459,00001.135916,00001.551720,00001.734726,00002.347570,00002.069369,00002.273820,00002.596482,00001.783054,00001.398427,-00000.430227,-00000.063368,-00000.535710,00000.051532,-00000.074624,-00000.103507
0000000001207,00001.703269,00001.133389,00001.550972,00001.732659,00002.346777,00002.068946,00002.273084,00002.593829,00001.782564,00001.396732,-00000.430143,-00000.063394,-00000.535375,00000.052044,-00000.074539,-00000.103439
0000000001208,00001.702059,00001.130988,00001.550264,00001.731090,00002.346042,00002.068577,00002.272737,00002.591318,00001.782028,00001.395459,-00000.430104,-00000.063378,-00000.535502,00000.052576,-00000.074411,-00000.103353
0000000001209,00001.701046,00001.128837,00001.549628,00001.729330,00002.345730,00002.067854,00002.272474,00002.589059,00001.781610,00001.396193,-00000.430395,-00000.063400,-00000.535217,00000.052649,-00000.074339,-00000.103295
0000000001210,00001.700015,00001.126792,00001.549388,00001.727632,00002.345467,00002.067540,00002.272179,00002.586922,00001.781153,00001.396923,-00000.431087,-00000.063386,-00000.534962,00000.052740,-00000.074230,-00000.102859
0000000001211,00001.699153,00001.125687,00001.549209,00001.726134,00002.345564,00002.066924,00002.271954,00002.585361,00001.780798,00001.397548,-00000.431698,-00000.063405,-00000.534719,00000.052439,-00000.074168,-00000.102809
0000000001212,00001.698276,00001.124672,00001.548279,00001.725051,00002.344977,00002.066657,00002.271703,00002.583542,00001.780046,00001.398169,-00000.432287,-00000.063393,-00000.534502,00000.052153,-00000.074076,-00000.102801
0000000001213,00001.697905,00001.123731,00001.548126,00001.724139,00002.344697,00002.066496,00002.271512,00002.582213,00001.779744,00001.398701,-00000.432807,-00000.063409,-00000.534295,00000.052260,-00000.074023,-00000.102759
0000000001214,00001.697521,00001.122867,00001.548061,00001.723579,00002.344560,00002.066268,00002.270936,00002.581027,00001.779467,00001.399230,-00000.432946,-00000.063399,-00000.534110,00000.052379,-00000.073945,-00000.102752
0000000001215,00001.697204,00001.122428,00001.547931,00001.723165,00002.344684,00002.065768,00002.271136,00002.579897,00001.779209,00001.399683,-00000.433026,-00000.063413,-00000.534297,00000.052470,-00000.073537,-00000.102716
0000000001216,00001.696878,00001.121693,00001.547512,00001.722689,00002.344568,00002.065574,00002.271008,00002.579250,00001.778610,00001.400133,-00000.433507,-00000.063404,-00000.534140,00000.052209,-00000.073470,-00000.102710
0000000001217,00001.696971,00001.121320,00001.547401,00001.722337,00002.344311,00002.065511,00002.270453,00002.578650,00001.778391,00001.400882,-00000.433938,-00000.063416,-00000.533936,00000.051924,-00000.073486,-00000.102679
0000000001218,00001.697056,00001.121056,00001.547408,00001.721932,00002.344575,00002.065346,00002.270344,00002.578099,00001.778244,00001.401265,-00000.434347,-00000.063409,-00000.533802,00000.051702,-00000.073792,-00000.102674
0000000001219,00001.697136,00001.120739,00001.546951,00001.721632,00002.344356,00002.065292,00002.270234,00002.577225,00001.778058,00001.401539,-00000.434714,-00000.063419,-00000.533628,00000.051459,-00000.074168,-00000.102648
0000000001220,00001.697208,00001.120877,00001.546593,00001.721287,00002.344581,00002.065152,00002.270504,00002.576757,00001.778296,00001.401866,-00000.435063,-00000.063413,-00000.533514,00000.050907,-00000.074065,-00000.102644
0000000001221,00001.697275,00001.120607,00001.546204,00001.721031,00002.344757,00002.064743,00002.270773,00002.576013,00001.778137,00001.402099,-00000.435012,-00000.063421,-00000.533367,00000.050700,-00000.074386,-00000.102985
0000000001222,00001.697337,00001.120362,00001.545900,00001.720738,00002.344586,00002.064624,00002.270640,00002.575614,00001.777976,00001.402377,-00000.435309,-00000.063416,-00000.533632,00000.050955,-00000.074661,-00000.102981
0000000001223,00001.697032,00001.120494,00001.545932,00001.720520,00002.344736,00002.064276,00002.270869,00002.575344,00001.777841,00001.402576,-00000.435991,-00000.063423,-00000.533507,00000.051505,-00000.075297,-00000.102908
0000000001224,00001.696721,00001.120649,00001.545673,00001.720633,00002.344590,00002.064174,00002.270756,00002.575004,00001.777704,00001.402812,-00000.436244,-00000.063418,-00000.533733,00000.051360,-00000.075894,-00000.102905
0000000001225,00001.696824,00001.120762,00001.545700,00001.720448,00002.344718,00002.064241,00002.270589,00002.574774,00001.777589,00001.402981,-00000.436825,-00000.063424,-00000.533989,00000.051465,-00000.076798,-00000.102843
0000000001226,00001.696923,00001.120893,00001.545479,00001.720544,00002.344593,00002.064154,00002.270855,00002.574847,00001.777836,00001.403183,-00000.437040,-00000.063421,-00000.533819,00000.051704,-00000.077669,-00000.103203
0000000001227,00001.697010,00001.121352,00001.545139,00001.720749,00002.344339,00002.064211,00002.271075,00002.576103,00001.778101,00001.403327,-00000.437172,-00000.063426,-00000.533674,00000.051431,-00000.078439,-00000.103513
0000000001228,00001.697820,00001.121827,00001.545314,00001.721194,00002.344596,00002.064500,00002.270939,00002.577617,00001.778311,00001.403498,-00000.437355,-00000.063423,-00000.533529,00000.051634,-00000.078818,-00000.104182
0000000001229,00001.698620,00001.122580,00001.545751,00001.721731,00002.344743,00002.064912,00002.270764,00002.580136,00001.778536,00001.403621,-00000.437104,-00000.063427,-00000.533405,00000.051764,-00000.079110,-00000.104446
0000000001230,00001.699309,00001.124073,00001.546262,00001.722472,00002.344962,00002.065157,00002.270648,00002.582513,00001.778715,00001.404130,-00000.437260,-00000.063424,-00000.533282,00000.051575,-00000.079432,-00000.104291
0000000001231,00001.700353,00001.126165,00001.546634,00001.723656,00002.345087,00002.065508,00002.270861,00002.585021,00001.778906,00001.404234,-00000.437410,-00000.063428,-00000.533539,00000.050960,-00000.079681,-00000.104152
0000000001232,00001.700940,00001.128161,00001.547432,00001.724287,00002.345636,00002.065717,00002.271126,00002.587408,00001.779059,00001.404667,-00000.437542,-00000.063426,-00000.533434,00000.050799,-00000.079956,-00000.104020
0000000001233,00001.701828,00001.129580,00001.548111,00001.724931,00002.345742,00002.066015,00002.271307,00002.589543,00001.779222,00001.405119,-00000.437669,-00000.063429,-00000.533291,00000.050638,-00000.080167,-00000.104265
0000000001234,00001.702328,00001.131279,00001.548428,00001.725468,00002.346209,00002.066193,00002.271532,00002.591574,00001.779351,00001.405487,-00000.438145,-00000.063427,-00000.533564,00000.050501,-00000.080401,-00000.104515
0000000001235,00001.702722,00001.132850,00001.548643,00001.726380,00002.346662,00002.066084,00002.272050,00002.593029,00001.779853,00001.405872,-00000.438254,-00000.063430,-00000.533442,00000.050001,-00000.080582,-00000.104361
0000000001236,00001.703147,00001.134659,00001.549276,00001.727925,00002.347060,00002.066236,00002.272604,00002.594758,00001.780326,00001.406186,-00000.437933,-00000.063428,-00000.533675,00000.049884,-00000.080418,-00000.104574
0000000001237,00001.703482,00001.136359,00001.549822,00001.729427,00002.347446,00002.066506,00002.273045,00002.596360,00001.781116,00001.406513,-00000.437662,-00000.063430,-00000.533934,00000.049822,-00000.080208,-00000.104805
0000000001238,00001.704207,00001.137899,00001.550723,00001.730742,00002.347785,00002.066635,00002.273516,00002.598195,00001.781882,00001.406780,-00000.437389,-00000.063429,-00000.534132,00000.049723,-00000.080069,-00000.104987
0000000001239,00001.704855,00001.139346,00001.551551,00001.732383,00002.348113,00002.066865,00002.273892,00002.599921,00001.782554,00001.407059,-00000.437159,-00000.063431,-00000.534352,00000.049669,-00000.079891,-00000.105184
0000000001240,00001.705472,00001.140657,00001.551956,00001.733866,00002.348402,00002.067338,00002.274293,00002.601120,00001.783569,00001.407286,-00000.436927,-00000.063430,-00000.534521,00000.049585,-00000.079772,-00000.105338
0000000001241,00001.706024,00001.141889,00001.552297,00001.735263,00002.348681,00002.067896,00002.274612,00002.602589,00001.784504,00001.407524,-00000.436368,-00000.063431,-00000.534709,00000.049539,-00000.079620,-00000.105506
0000000001242,00001.706186,00001.142643,00001.552279,00001.736526,00002.348927,00002.067936,00002.274954,00002.603248,00001.785005,00001.407354,-00000.436170,-00000.063430,-00000.535215,00000.049104,-00000.079882,-00000.105637
0000000001243,00001.706293,00001.142240,00001.552207,00001.736264,00002.348802,00002.068048,00002.274863,00002.603773,00001.784713,00001.407194,-00000.436057,-00000.063794,-00000.535737,00000.048340,-00000.080479,-00000.105417
0000000001244,00001.705706,00001.141068,00001.551829,00001.735525,00002.348648,00002.067719,00002.274792,00002.602882,00001.784414,00001.404873,-00000.435526,-00000.063794,-00000.535806,00000.047970,-00000.080701,-00000.105529
0000000001245,00001.704708,00001.139274,00001.551042,00001.733851,00002.348542,00002.067452,00002.274351,00002.600427,00001.783802,00001.401834,-00000.435067,-00000.063378,-00000.535525,00000.048045,-00000.080121,-00000.106067
0000000001246,00001.703483,00001.137550,00001.550357,00001.731044,00002.348048,00002.066810,00002.273928,00002.597854,00001.782822,00001.398770,-00000.434978,-00000.063377,-00000.535220,00000.047730,-00000.080311,-00000.106525
0000000001247,00001.702271,00001.135297,00001.549324,00001.728168,00002.347595,00002.066220,00002.273190,00002.594676,00001.782301,00001.395819,-00000.435313,-00000.063386,-00000.535344,00000.047431,-00000.081267,-00000.106621
0000000001248,00001.700865,00001.132742,00001.548378,00001.725054,00002.346812,00002.065672,00002.272467,00002.591760,00001.781467,00001.393211,-00000.435236,-00000.063386,-00000.535085,00000.047163,-00000.081792,-00000.106285
0000000001249,00001.699833,00001.130461,00001.547499,00001.722242,00002.346426,00002.065170,00002.271839,00002.589055,00001.780661,00001.390700,-00000.435159,-00000.063031,-00000.534827,00000.046908,-00000.081881,-00000.106004
0000000001250,00001.698636,00001.128285,00001.546694,00001.719591,00002.345759,00002.064704,00002.271223,00002.586210,00001.780313,00001.388479,-00000.435094,-00000.063030,-00000.534969,00000.046317,-00000.082327,-00000.106081
0000000001251,00001.697758,00001.126344,00001.545946,00001.717198,00002.345431,00002.064639,00002.270688,00002.583906,00001.779627,00001.385978,-00000.434665,-00000.063091,-00000.534750,00000.046101,-00000.082403,-00000.106204
0000000001252,00001.696739,00001.125217,00001.544897,00001.714940,00002.344863,00002.064243,00002.270164,00002.581122,00001.779331,00001.383725,-00000.434610,-00000.063090,-00000.534871,00000.045960,-00000.082057,-00000.106632
0000000001253,00001.695628,00001.124290,00001.543898,00001.712903,00002.344221,00002.063825,00002.269709,00002.578798,00001.779110,00001.381959,-00000.434970,-00000.063142,-00000.535410,00000.045413,-00000.082484,-00000.106737
0000000001254,00001.695124,00001.122606,00001.543368,00001.710982,00002.344101,00002.063487,00002.269262,00002.576791,00001.778495,00001.380404,-00000.435286,-00000.063141,-00000.535513,00000.044931,-00000.082916,-00000.106739
0000000001255,00001.694541,00001.121091,00001.542517,00001.709247,00002.343191,00002.063494,00002.268512,00002.574812,00001.777944,00001.378900,-00000.435593,-00000.063185,-00000.535609,00000.044828,-00000.082917,-00000.107191
0000000001256,00001.694112,00001.120382,00001.542066,00001.707611,00002.343089,00002.063207,00002.268132,00002.573103,00001.777420,00001.377576,-00000.435499,-00000.063185,-00000.535697,00000.044780,-00000.082921,-00000.107555
0000000001257,00001.693616,00001.119818,00001.541704,00001.706860,00002.343040,00002.062850,00002.267856,00002.571782,00001.776951,00001.377022,-00000.435035,-00000.063222,-00000.535416,00000.044692,-00000.082559,-00000.107577
0000000001258,00001.693613,00001.119215,00001.541320,00001.706556,00002.342590,00002.062968,00002.267533,00002.570690,00001.776506,00001.378797,-00000.434592,-00000.063222,-00000.535490,00000.044651,-00000.082200,-00000.107525
0000000001259,00001.693916,00001.118735,00001.541012,00001.706642,00002.342548,00002.062664,00002.267298,00002.569565,00001.776106,00001.380865,-00000.434196,-00000.063254,-00000.535614,00000.044577,-00000.081892,-00000.107543
0000000001260,00001.693914,00001.118221,00001.540686,00001.706384,00002.342165,00002.062765,00002.267022,00002.568998,00001.775727,00001.380562,-00000.434182,-00000.063253,-00000.535677,00000.044542,-00000.081949,-00000.107861
0000000001261,00001.693446,00001.117812,00001.540423,00001.706094,00002.341767,00002.062869,00002.266823,00002.568041,00001.775750,00001.379420,-00000.434571,-00000.063280,-00000.535782,00000.044478,-00000.082050,-00000.108240
0000000001262,00001.693081,00001.117375,00001.540145,00001.705511,00002.342166,00002.062592,00002.266951,00002.567195,00001.775427,00001.378799,-00000.434559,-00000.063280,-00000.535836,00000.044449,-00000.082098,-00000.108511
0000000001263,00001.693046,00001.117027,00001.539922,00001.705265,00002.341827,00002.062680,00002.266781,00002.566380,00001.775083,00001.378915,-00000.434528,-00000.063303,-00000.535926,00000.044395,-00000.081821,-00000.108833
0000000001264,00001.693461,00001.116655,00001.539685,00001.705857,00002.341805,00002.062807,00002.266890,00002.565660,00001.775171,00001.380564,-00000.434155,-00000.063303,-00000.535972,00000.044007,-00000.081862,-00000.108701
0000000001265,00001.694157,00001.116359,00001.539495,00001.706010,00002.341879,00002.062883,00002.266745,00002.565329,00001.774879,00001.382114,-00000.433765,-00000.063323,-00000.536048,00000.043598,-00000.081989,-00000.108976
0000000001266,00001.694873,00001.116405,00001.539294,00001.706514,00002.341860,00002.063353,00002.266838,00002.565079,00001.774954,00001.383154,-00000.433810,-00000.063322,-00000.535725,00000.043268,-00000.082024,-00000.109226
0000000001267,00001.695103,00001.116878,00001.539132,00001.706644,00002.341560,00002.063418,00002.267078,00002.565160,00001.774705,00001.384474,-00000.433841,-00000.063339,-00000.535790,00000.043282,-00000.082132,-00000.109459
0000000001268,00001.695712,00001.117280,00001.538960,00001.706710,00002.341906,00002.063093,00002.267157,00002.564947,00001.774769,00001.386085,-00000.434243,-00000.063339,-00000.535514,00000.043364,-00000.082162,-00000.109672
0000000001269,00001.696270,00001.117683,00001.538822,00001.707184,00002.342014,00002.063510,00002.267361,00002.565016,00001.774920,00001.387571,-00000.434269,-00000.063353,-00000.535569,00000.043377,-00000.082254,-00000.109871
0000000001270,00001.696789,00001.118025,00001.539039,00001.707966,00002.342309,00002.063596,00002.267428,00002.565923,00001.774974,00001.388943,-00000.433885,-00000.063353,-00000.535698,00000.043446,-00000.082280,-00000.110052
0000000001271,00001.697264,00001.118369,00001.538922,00001.709095,00002.342401,00002.063952,00002.267964,00002.567070,00001.775102,00001.390208,-00000.433545,-00000.063365,-00000.535745,00000.043457,-00000.082358,-00000.109859
0000000001272,00001.697706,00001.119023,00001.538744,00001.710123,00002.342652,00002.064025,00002.268384,00002.568206,00001.775511,00001.391376,-00000.432855,-00000.063365,-00000.536217,00000.043879,-00000.082380,-00000.109651
0000000001273,00001.698111,00001.119315,00001.539007,00001.710721,00002.343093,00002.063965,00002.268478,00002.569908,00001.775621,00001.392453,-00000.432203,-00000.063375,-00000.536257,00000.044251,-00000.082084,-00000.109486
0000000001274,00001.698487,00001.119872,00001.538855,00001.711597,00002.343306,00002.064028,00002.268473,00002.571237,00001.775969,00001.393084,-00000.431978,-00000.063375,-00000.536296,00000.044973,-00000.081739,-00000.108946
0000000001275,00001.699194,00001.120120,00001.539079,00001.712469,00002.343319,00002.064339,00002.268553,00002.572686,00001.776062,00001.394001,-00000.432149,-00000.063384,-00000.536330,00000.045652,-00000.081850,-00000.108443
0000000001276,00001.699514,00001.120594,00001.539312,00001.713214,00002.343501,00002.064392,00002.268911,00002.574180,00001.776358,00001.394901,-00000.432320,-00000.063384,-00000.536726,00000.046629,-00000.082282,-00000.107983
0000000001277,00001.700116,00001.121531,00001.539140,00001.714319,00002.343874,00002.064295,00002.269342,00002.575776,00001.776800,00001.395682,-00000.432465,-00000.063392,-00000.537118,00000.047571,-00000.082739,-00000.107555
0000000001278,00001.700751,00001.122661,00001.538976,00001.715679,00002.344029,00002.064703,00002.269647,00002.577774,00001.777053,00001.396448,-00000.432611,-00000.063391,-00000.537455,00000.048040,-00000.083108,-00000.107163
0000000001279,00001.701264,00001.124547,00001.539192,00001.716620,00002.344710,00002.064620,00002.270014,00002.579858,00001.777429,00001.397113,-00000.432735,-00000.063398,-00000.537788,00000.048478,-00000.083134,-00000.106798
0000000001280,00001.701805,00001.126596,00001.539053,00001.717778,00002.344841,00002.064967,00002.270274,00002.581922,00001.778007,00001.397765,-00000.433222,-00000.063398,-00000.538075,00000.048878,-00000.083084,-00000.106828
0000000001281,00001.702241,00001.128565,00001.539237,00001.718942,00002.345421,00002.064896,00002.270586,00002.583696,00001.778327,00001.398331,-00000.433690,-00000.063403,-00000.538359,00000.049614,-00000.082744,-00000.106880
0000000001282,00001.702701,00001.130310,00001.539481,00001.719928,00002.345896,00002.064829,00002.270807,00002.585453,00001.778819,00001.398886,-00000.434105,-00000.063403,-00000.538603,00000.050317,-00000.082339,-00000.106906
0000000001283,00001.703073,00001.130897,00001.539275,00001.720555,00002.345664,00002.065132,00002.271073,00002.586964,00001.779091,00001.399368,-00000.434140,-00000.063408,-00000.538845,00000.050580,-00000.082049,-00000.106587
0000000001284,00001.703465,00001.130206,00001.539482,00001.720669,00002.345705,00002.065438,00002.270898,00002.587371,00001.779147,00001.397664,-00000.433768,-00000.063408,-00000.538690,00000.050816,-00000.082067,-00000.106609
0000000001285,00001.703055,00001.128892,00001.539670,00001.720478,00002.345508,00002.065333,00002.270762,00002.585754,00001.779017,00001.394809,-00000.433435,-00000.063412,-00000.538533,00000.051041,-00000.082184,-00000.106701
0000000001286,00001.702301,00001.126852,00001.539121,00001.719123,00002.344817,00002.065230,00002.270250,00002.583924,00001.778339,00001.391907,-00000.433118,-00000.063412,-00000.538402,00000.051241,-00000.082199,-00000.106719
0000000001287,00001.701227,00001.124645,00001.538555,00001.716784,00002.344286,00002.065140,00002.269771,00002.581822,00001.778227,00001.389114,-00000.433198,-00000.063415,-00000.538268,00000.051432,-00000.082298,-00000.106797
0000000001288,00001.699859,00001.122546,00001.537725,00001.713817,00002.343699,00002.064690,00002.269336,00002.579176,00001.777650,00001.386280,-00000.433653,-00000.063415,-00000.538518,00000.051240,-00000.082311,-00000.106813
0000000001289,00001.698581,00001.120305,00001.536880,00001.707109,00002.343247,00002.064251,00002.268566,00002.576661,00001.776830,00001.383540,-00000.434084,-00000.063418,-00000.538767,00000.051040,-00000.082758,-00000.106517
0000000001290,00001.697417,00001.118155,00001.536173,00001.700230,00002.342746,00002.063505,00002.267832,00002.574046,00001.775976,00001.381128,-00000.434109,-00000.063418,-00000.538981,00000.050877,-00000.083132,-00000.106530
0000000001291,00001.696329,00001.115884,00001.535092,00001.694519,00002.341999,00002.063132,00002.267176,00002.571542,00001.775277,00001.378795,-00000.433750,-00000.063057,-00000.539193,00000.050706,-00000.083512,-00000.106640
0000000001292,00001.695701,00001.113691,00001.534127,00001.689026,00002.341210,00002.062859,00002.266552,00002.569315,00001.774550,00001.376741,-00000.433046,-00000.063057,-00000.539012,00000.050204,-00000.083831,-00000.107014
0000000001293,00001.695138,00001.112120,00001.533569,00001.685253,00002.340936,00002.062541,00002.265993,00002.567184,00001.773956,00001.374755,-00000.432377,-00000.063113,-00000.538829,00000.049697,-00000.083792,-00000.107109
0000000001294,00001.694240,00001.110616,00001.533111,00001.682027,00002.340628,00002.062309,00002.265825,00002.565288,00001.773337,00001.373370,-00000.431778,-00000.063113,-00000.538675,00000.049269,-00000.083700,-00000.107064
0000000001295,00001.693398,00001.109279,00001.532273,00001.679178,00002.340395,00002.062039,00002.265712,00002.563474,00001.773193,00001.371679,-00000.431209,-00000.063161,-00000.538520,00000.048837,-00000.083304,-00000.107145
0000000001296,00001.692634,00001.108362,00001.531883,00001.675707,00002.340132,00002.061841,00002.265568,00002.561860,00001.772666,00001.370137,-00000.431061,-00000.063161,-00000.538389,00000.048473,-00000.082863,-00000.107470
0000000001297,00001.692280,00001.107224,00001.531532,00001.672556,00002.339934,00002.061611,00002.265110,00002.560316,00001.772182,00001.368698,-00000.431302,-00000.063202,-00000.538256,00000.048105,-00000.082889,-00000.107538
0000000001298,00001.691992,00001.106080,00001.530838,00001.669600,00002.339347,00002.061806,00002.264625,00002.559305,00001.771733,00001.367748,-00000.431540,-00000.063202,-00000.538145,00000.047795,-00000.082876,-00000.107452
0000000001299,00001.691691,00001.105111,00001.530176,00001.666918,00002.339178,00002.061609,00002.264597,00002.557990,00001.771683,00001.366523,-00000.432108,-00000.063236,-00000.538032,00000.047845,-00000.082536,-00000.107510
0000000001300,00001.691445,00001.104137,00001.529585,00001.664765,00002.338679,00002.061412,00002.264184,00002.556766,00001.771301,00001.365714,-00000.432672,-00000.063236,-00000.538300,00000.047944,-00000.082162,-00000.106711
0000000001301,00001.691189,00001.103675,00001.529385,00001.662844,00002.338535,00002.061245,00002.263798,00002.556010,00001.770896,00001.365396,-00000.433156,-00000.063266,-00000.538204,00000.048349,-00000.081509,-00000.105672
0000000001302,00001.690980,00001.103208,00001.529244,00001.661011,00002.338473,00002.061078,00002.263446,00002.554968,00001.770571,00001.364708,-00000.433637,-00000.063266,-00000.538069,00000.049159,-00000.080828,-00000.104992
0000000001303,00001.690762,00001.102815,00001.529074,00001.658650,00002.338351,00002.061298,00002.263117,00002.554324,00001.770226,00001.364075,-00000.434411,-00000.063291,-00000.537988,00000.049867,-00000.080635,-00000.104470
0000000001304,00001.690584,00001.102055,00001.528954,00001.656365,00002.338298,00002.061155,00002.263181,00002.553438,00001.769949,00001.363489,-00000.435183,-00000.063291,-00000.537873,00000.050556,-00000.080781,-00000.104254
0000000001305,00001.690398,00001.101358,00001.528446,00001.654718,00002.337831,00002.060980,00002.262901,00002.552526,00001.769655,00001.362950,-00000.435480,-00000.063312,-00000.538166,00000.050796,-00000.080980,-00000.104173
0000000001306,00001.689884,00001.100711,00001.527981,00001.653497,00002.337786,00002.060859,00002.262592,00002.551772,00001.769420,00001.362088,-00000.436137,-00000.063312,-00000.538068,00000.051020,-00000.081104,-00000.104352
0000000001307,00001.689726,00001.100480,00001.527912,00001.652458,00002.337751,00002.060710,00002.262354,00002.551359,00001.769170,00001.361629,-00000.436389,-00000.063330,-00000.538318,00000.050861,-00000.081636,-00000.104645
0000000001308,00001.689651,00001.101018,00001.527516,00001.653233,00002.338076,00002.060606,00002.262454,00002.550716,00001.769332,00001.361258,-00000.435861,-00000.063330,-00000.538235,00000.050689,-00000.081742,-00000.104797
0000000001309,00001.689516,00001.101547,00001.527094,00001.653799,00002.338046,00002.060480,00002.262614,00002.550365,00001.769482,00001.361231,-00000.435350,-00000.063345,-00000.538447,00000.050917,-00000.081832,-00000.105410
0000000001310,00001.689816,00001.101642,00001.527120,00001.654096,00002.337959,00002.060754,00002.262336,00002.550543,00001.769620,00001.361278,-00000.434900,-00000.063345,-00000.538376,00000.051133,-00000.081559,-00000.105903
0000000001311,00001.690064,00001.101729,00001.527124,00001.654579,00002.337934,00002.060646,00002.262472,00002.550244,00001.769748,00001.361617,-00000.434828,-00000.063359,-00000.538195,00000.050964,-00000.081635,-00000.106424
0000000001312,00001.690681,00001.101810,00001.527146,00001.655557,00002.338223,00002.060517,00002.262598,00002.550396,00001.769865,00001.362745,-00000.434807,-00000.063359,-00000.538134,00000.050785,-00000.082129,-00000.106481
0000000001313,00001.691255,00001.102610,00001.527149,00001.657056,00002.338565,00002.060788,00002.263077,00002.550504,00001.769974,00001.364485,-00000.434746,-00000.063007,-00000.537980,00000.050642,-00000.082557,-00000.106562
0000000001314,00001.692144,00001.103404,00001.527167,00001.658615,00002.338811,00002.061041,00002.263185,00002.550997,00001.770074,00001.366172,-00000.434729,-00000.063007,-00000.537928,00000.050490,-00000.082977,-00000.106973
0000000001315,00001.692995,00001.104448,00001.527170,00001.660616,00002.339101,00002.061272,00002.263229,00002.551451,00001.770166,00001.366927,-00000.434676,-00000.063070,-00000.537796,00000.050367,-00000.083341,-00000.107405
0000000001316,00001.693751,00001.105487,00001.527549,00001.661943,00002.339311,00002.061487,00002.263684,00002.552233,00001.770252,00001.367637,-00000.434662,-00000.063070,-00000.537753,00000.050238,-00000.083699,-00000.107754
0000000001317,00001.694839,00001.106739,00001.527914,00001.663647,00002.339558,00002.062046,00002.264085,00002.554072,00001.770693,00001.370094,-00000.434617,-00000.062762,-00000.537641,00000.049770,-00000.084009,-00000.108122
0000000001318,00001.695846,00001.107986,00001.528236,00001.665502,00002.339737,00002.062230,00002.264472,00002.556551,00001.771128,00001.372513,-00000.434967,-00000.062399,-00000.537603,00000.049298,-00000.084676,-00000.108420
0000000001319,00001.696771,00001.109414,00001.528547,00001.666590,00002.340673,00002.062343,00002.264813,00002.559204,00001.771504,00001.374967,-00000.435292,-00000.062136,-00000.537508,00000.048900,-00000.085303,-00000.108733
0000000001320,00001.697628,00001.110839,00001.528822,00001.667806,00002.341187,00002.062499,00002.265142,00002.562041,00001.771875,00001.377389,-00000.435590,-00000.061827,-00000.537113,00000.048497,-00000.086234,-00000.108623
0000000001321,00001.698417,00001.112780,00001.529086,00001.669458,00002.341622,00002.062595,00002.265795,00002.564662,00001.772195,00001.379478,-00000.435867,-00000.061603,-00000.537032,00000.048522,-00000.086767,-00000.108890
0000000001322,00001.699509,00001.114719,00001.529320,00001.673758,00002.341697,00002.063091,00002.266076,00002.567440,00001.772510,00001.381540,-00000.435758,-00000.061703,-00000.537059,00000.048542,-00000.086834,-00000.109160
0000000001323,00001.700543,00001.117097,00001.529545,00001.678792,00002.342066,00002.063536,00002.266632,00002.570034,00001.772783,00001.383319,-00000.435631,-00000.061876,-00000.536990,00000.048562,-00000.086925,-00000.109386
0000000001324,00001.701110,00001.119473,00001.529744,00001.682816,00002.342493,00002.063958,00002.267233,00002.572399,00001.773414,00001.385074,-00000.435538,-00000.061961,-00000.537376,00000.048217,-00000.086982,-00000.109979
0000000001325,00001.701627,00001.120772,00001.529936,00001.686739,00002.342808,00002.064337,00002.267344,00002.574608,00001.773646,00001.386588,-00000.435792,-00000.062107,-00000.537680,00000.048234,-00000.087060,-00000.110535
0000000001326,00001.702110,00001.121343,00001.529742,00001.685811,00002.343171,00002.064333,00002.267856,00002.576258,00001.774184,00001.385180,-00000.436076,-00000.062180,-00000.538008,00000.048303,-00000.087109,-00000.111039
0000000001327,00001.701825,00001.120635,00001.529543,00001.683709,00002.343077,00002.064293,00002.267587,00002.575598,00001.774018,00001.382841,-00000.436656,-00000.062305,-00000.537904,00000.048318,-00000.087175,-00000.111512
0000000001328,00001.700784,00001.119307,00001.528652,00001.680742,00002.342660,00002.063927,00002.267298,00002.573738,00001.773750,00001.380553,-00000.437623,-00000.062366,-00000.537821,00000.048739,-00000.087579,-00000.111579
0000000001329,00001.699453,00001.117253,00001.525580,00001.676050,00002.342217,00002.063530,00002.266706,00002.571726,00001.772884,00001.378200,-00000.439204,-00000.062473,-00000.537732,00000.048751,-00000.088361,-00000.111256
0000000001330,00001.697842,00001.115398,00001.521557,00001.670259,00002.341500,00002.062855,00002.265734,00002.569053,00001.771930,00001.376978,-00000.441116,-00000.062162,-00000.537298,00000.048747,-00000.089430,-00000.110950
0000000001331,00001.695983,00001.113286,00001.517490,00001.660460,00002.340396,00002.061792,00002.264505,00002.566615,00001.770830,00001.375700,-00000.444639,-00000.061890,-00000.536860,00000.048758,-00000.090822,-00000.110675
0000000001332,00001.693523,00001.111344,00001.512252,00001.650088,00002.339060,00002.060129,00002.262952,00002.561438,00001.768929,00001.374297,-00000.450258,-00000.061626,-00000.536128,00000.048754,-00000.092095,-00000.110415
0000000001333,00001.689764,00001.109183,00001.504799,00001.637393,00002.337033,00002.058135,00002.261180,00002.555734,00001.766904,00001.372483,-00000.461238,-00000.061394,-00000.534304,00000.049126,-00000.094005,-00000.110181
0000000001334,00001.685131,00001.107167,00001.495260,00001.623484,00002.335170,00002.055995,00002.257681,00002.549875,00001.763473,00001.372378,-00000.476179,-00000.061169,-00000.532592,00000.049486,-00000.095815,-00000.110322
0000000001335,00001.679754,00001.105328,00001.484925,00001.609774,00002.333081,00002.053572,00002.253996,00002.542480,00001.759572,00001.370108,-00000.492057,-00000.060972,-00000.530677,00000.049440,-00000.098166,-00000.110848
0000000001336,00001.673269,00001.103611,00001.474628,00001.596120,00002.331132,00002.051024,00002.250654,00002.534590,00001.755199,00001.367841,-00000.508767,-00000.061143,-00000.528494,00000.049746,-00000.100795,-00000.111331
0000000001337,00001.666515,00001.102046,00001.462202,00001.582635,00002.328266,00002.047872,00002.247154,00002.526118,00001.750427,00001.365183,-00000.526638,-00000.061701,-00000.526863,00000.050795,-00000.102434,-00000.111416
0000000001338,00001.659181,00001.100584,00001.449082,00001.568834,00002.325155,00002.044252,00002.243584,00002.517224,00001.745254,00001.362165,-00000.546668,-00000.062209,-00000.525005,00000.052507,-00000.103946,-00000.111464
0000000001339,00001.651618,00001.098526,00001.435964,00001.554452,00002.321264,00002.040118,00002.239516,00002.508198,00001.739015,00001.357363,-00000.568774,-00000.063047,-00000.523254,00000.055214,-00000.104253,-00000.110449
0000000001340,00001.644649,00001.096556,00001.423707,00001.539801,00002.317165,00002.035948,00002.235025,00002.499176,00001.733159,00001.351529,-00000.593081,-00000.064205,-00000.521309,00000.058123,-00000.104452,-00000.109039
0000000001341,00001.637847,00001.094804,00001.411814,00001.524292,00002.313127,00002.031704,00002.230837,00002.490403,00001.727485,00001.345264,-00000.619882,-00000.065281,-00000.519093,00000.061515,-00000.105077,-00000.107086
0000000001342,00001.629012,00001.092402,00001.398478,00001.507829,00002.307823,00002.026702,00002.225926,00002.481634,00001.720324,00001.337032,-00000.652184,-00000.067356,-00000.517075,00000.065080,-00000.106334,-00000.104797
0000000001343,00001.620319,00001.090547,00001.385814,00001.492087,00002.300032,00002.021638,00002.221272,00002.473078,00001.715494,00001.329885,-00000.688060,-00000.069723,-00000.514463,00000.069057,-00000.107591,-00000.102409
0000000001344,00001.612072,00001.088502,00001.373372,00001.475532,00002.291526,00002.017017,00002.217091,00002.465250,00001.709034,00001.321063,-00000.727168,-00000.072940,-00000.512019,00000.073542,-00000.108662,-00000.100460
0000000001345,00001.603584,00001.086561,00001.360777,00001.455601,00002.283080,00002.011617,00002.213129,00002.457966,00001.703834,00001.312076,-00000.768956,-00000.077132,-00000.510158,00000.077653,-00000.110095,-00000.099515
0000000001346,00001.595475,00001.084820,00001.348734,00001.434615,00002.274751,00002.005870,00002.209569,00002.451302,00001.698698,00001.299487,-00000.813133,-00000.081685,-00000.508077,00000.082197,-00000.111007,-00000.098582
0000000001347,00001.587160,00001.082441,00001.337286,00001.413293,00002.266471,00002.000185,00002.205834,00002.445101,00001.692457,00001.286395,-00000.859590,-00000.086341,-00000.505768,00000.086785,-00000.111138,-00000.097778
0000000001348,00001.579168,00001.079871,00001.326308,00001.392526,00002.258293,00001.994929,00002.202441,00002.439791,00001.685907,00001.273138,-00000.906993,-00000.091306,-00000.503271,00000.091379,-00000.110826,-00000.096621
0000000001349,00001.570639,00001.076758,00001.315837,00001.372561,00002.249793,00001.990089,00002.199986,00002.434512,00001.679143,00001.259816,-00000.955612,-00000.097084,-00000.501305,00000.096011,-00000.110575,-00000.095573
0000000001350,00001.560571,00001.073118,00001.305404,00001.351979,00002.240654,00001.985252,00002.197824,00002.429629,00001.672480,00001.246354,-00001.008302,-00000.102398,-00000.498816,00000.099922,-00000.111034,-00000.094225
0000000001351,00001.549319,00001.069380,00001.295401,00001.332081,00002.232330,00001.980407,00002.196097,00002.424772,00001.665633,00001.233199,-00001.061300,-00000.107680,-00000.496054,00000.103501,-00000.111183,-00000.092971
0000000001352,00001.538571,00001.065556,00001.286519,00001.312746,00002.223099,00001.975201,00002.194982,00002.420252,00001.658872,00001.220650,-00001.113048,-00000.112205,-00000.493573,00000.107194,-00000.111212,-00000.092186
0000000001353,00001.528267,00001.061648,00001.278004,00001.294718,00002.214199,00001.970350,00002.193874,00002.416118,00001.652318,00001.208363,-00001.163970,-00000.116701,-00000.491221,00000.110604,-00000.110976,-00000.091844
0000000001354,00001.518391,00001.057667,00001.270443,00001.277532,00002.205614,00001.965918,00002.192562,00002.412633,00001.645836,00001.196591,-00001.213828,-00000.121278,-00000.489109,00000.114110,-00000.110275,-00000.091539
0000000001355,00001.508894,00001.053614,00001.263557,00001.261097,00002.197675,00001.961063,00002.191619,00002.409113,00001.639168,00001.184317,-00001.261532,-00000.125106,-00000.487470,00000.117739,-00000.109711,-00000.090159
0000000001356,00001.499761,00001.049500,00001.257120,00001.245741,00002.190367,00001.956927,00002.191590,00002.405783,00001.633288,00001.172482,-00001.306877,-00000.128640,-00000.486035,00000.121449,-00000.108751,-00000.087722
0000000001357,00001.490951,00001.045687,00001.250895,00001.231386,00002.183608,00001.953157,00002.191514,00002.402424,00001.627611,00001.160582,-00001.349665,-00000.131898,-00000.485002,00000.124901,-00000.106821,-00000.084371
0000000001358,00001.482451,00001.042184,00001.245052,00001.217226,00002.177024,00001.949636,00002.192215,00002.399227,00001.622605,00001.149419,-00001.390081,-00000.135632,-00000.484869,00000.127697,-00000.104915,-00000.081208
0000000001359,00001.474587,00001.038938,00001.239753,00001.203917,00002.170907,00001.946427,00002.192875,00002.396367,00001.617773,00001.138563,-00001.427957,-00000.139132,-00000.484353,00000.130635,-00000.103271,-00000.078718
0000000001360,00001.467714,00001.035594,00001.234779,00001.191500,00002.165303,00001.943429,00002.193472,00002.394008,00001.613512,00001.127971,-00001.463452,-00000.142310,-00000.483514,00000.133741,-00000.102012,-00000.076751
0000000001361,00001.460657,00001.032468,00001.229905,00001.179808,00002.159733,00001.940697,00002.194034,00002.391574,00001.609035,00001.116915,-00001.498598,-00000.145289,-00000.482349,00000.136968,-00000.101338,-00000.075357
0000000001362,00001.453354,00001.029258,00001.225671,00001.168511,00002.154598,00001.937783,00002.194542,00002.389203,00001.605044,00001.106447,-00001.533169,-00000.148358,-00000.480909,00000.139975,-00000.100629,-00000.074045
0000000001363,00001.446258,00001.026234,00001.221885,00001.158194,00002.149857,00001.935094,00002.195020,00002.387130,00001.601233,00001.096673,-00001.566354,-00000.151257,-00000.479917,00000.143085,-00000.099693,-00000.072496
0000000001364,00001.439316,00001.023864,00001.217917,00001.148215,00002.145486,00001.932250,00002.195815,00002.384749,00001.597836,00001.088124,-00001.597598,-00000.154232,-00000.479054,00000.145644,-00000.098726,-00000.070291
0000000001365,00001.432913,00001.021289,00001.214694,00001.138707,00002.141812,00001.929598,00002.196585,00002.383348,00001.594229,00001.080166,-00001.626574,-00000.157063,-00000.478572,00000.147929,-00000.097566,-00000.067883
0000000001366,00001.426640,00001.018909,00001.211316,00001.129848,00002.138091,00001.927178,00002.197262,00002.381321,00001.590974,00001.072526,-00001.653172,-00000.160321,-00000.478200,00000.150108,-00000.096380,-00000.065280
0000000001367,00001.420826,00001.016718,00001.208209,00001.121754,00002.134601,00001.925283,00002.197918,00002.379765,00001.587904,00001.065388,-00001.678927,-00000.163094,-00000.477065,00000.152416,-00000.095393,-00000.062505
0000000001368,00001.415486,00001.015054,00001.205334,00001.114213,00002.131434,00001.923585,00002.198857,00002.378402,00001.585495,00001.058521,-00001.704110,-00000.165505,-00000.475660,00000.155722,-00000.094384,-00000.059927
0000000001369,00001.409811,00001.013188,00001.202689,00001.106959,00002.128462,00001.921972,00002.199415,00002.376715,00001.582881,00001.051356,-00001.728212,-00000.168228,-00000.473968,00000.159138,-00000.093180,-00000.057927
0000000001370,00001.404177,00001.011409,00001.200242,00001.100177,00002.125766,00001.920526,00002.199852,00002.375191,00001.580469,00001.044785,-00001.751101,-00000.171006,-00000.472409,00000.162678,-00000.092321,-00000.057183
0000000001371,00001.397894,00001.009459,00001.197990,00001.094002,00002.122874,00001.919153,00002.199964,00002.373755,00001.578243,00001.038686,-00001.773071,-00000.174050,-00000.470605,00000.165949,-00000.091659,-00000.056932
0000000001372,00001.391284,00001.007944,00001.195906,00001.088228,00002.120578,00001.917560,00002.200336,00002.372459,00001.576189,00001.032729,-00001.794370,-00000.177141,-00000.468553,00000.169325,-00000.090565,-00000.057024
0000000001373,00001.381219,00001.005558,00001.193990,00001.082246,00002.118479,00001.916028,00002.200794,00002.370873,00001.573569,00001.022094,-00001.815250,-00000.180095,-00000.465929,00000.173198,-00000.089276,-00000.057173
0000000001374,00001.369424,00001.002454,00001.192216,00001.076605,00002.116162,00001.914671,00002.200748,00002.369044,00001.571458,00001.010493,-00001.835196,-00000.183451,-00000.463456,00000.177523,-00000.087982,-00000.057252
0000000001375,00001.358317,00000.999334,00001.190221,00001.067521,00002.113649,00001.913368,00002.200776,00002.366968,00001.569227,00000.998175,-00001.855147,-00000.187054,-00000.460497,00000.181909,-00000.086885,-00000.056653
0000000001376,00001.347187,00000.995604,00001.187985,00001.057277,00002.111314,00001.911850,00002.200736,00002.364685,00001.565616,00000.985759,-00001.875030,-00000.189912,-00000.457303,00000.186317,-00000.085783,-00000.055631
0000000001377,00001.336643,00000.992223,00001.185925,00001.047731,00002.108812,00001.910014,00002.200397,00002.361830,00001.561541,00000.974184,-00001.894554,-00000.192253,-00000.453696,00000.191138,-00000.085574,-00000.054396
0000000001378,00001.326443,00000.988684,00001.184021,00001.037921,00002.106098,00001.908360,00002.200000,00002.358798,00001.557741,00000.963615,-00001.913657,-00000.194323,-00000.449889,00000.196342,-00000.086087,-00000.052801
0000000001379,00001.316741,00000.985443,00001.182267,00001.028706,00002.103605,00001.906797,00002.199711,00002.354916,00001.553908,00000.953036,-00001.932092,-00000.196317,-00000.446455,00000.201535,-00000.086273,-00000.051386
0000000001380,00001.307332,00000.982431,00001.180647,00001.019993,00002.101658,00001.905388,00002.199374,00002.351247,00001.550311,00000.942949,-00001.950168,-00000.198079,-00000.442851,00000.207053,-00000.086347,-00000.050029
0000000001381,00001.299073,00000.978946,00001.179153,00001.011785,00002.099536,00001.903695,00002.199128,00002.347943,00001.547048,00000.933218,-00001.968401,-00000.199776,-00000.439202,00000.213651,-00000.086142,-00000.048824
0000000001382,00001.291063,00000.975656,00001.177774,00001.004004,00002.097516,00001.902133,00002.198841,00002.344456,00001.543623,00000.923543,-00001.986691,-00000.201276,-00000.435409,00000.220162,-00000.086205,-00000.047668
0000000001383,00001.280404,00000.972689,00001.176140,00000.995566,00002.095346,00001.900692,00002.198269,00002.341280,00001.539394,00000.913807,-00002.004753,-00000.202720,-00000.431214,00000.226867,-00000.086756,-00000.046281
0000000001384,00001.270321,00000.969525,00001.174966,00000.986403,00002.093263,00001.899725,00002.197661,00002.338312,00001.535390,00000.904482,-00002.021412,-00000.203997,-00000.427622,00000.232773,-00000.087172,-00000.044934
0000000001385,00001.261247,00000.966637,00001.173937,00000.978131,00002.091780,00001.898861,00002.197174,00002.335608,00001.531427,00000.896194,-00002.037151,-00000.205590,-00000.424414,00000.238844,-00000.088004,-00000.043027
0000000001386,00001.252662,00000.963944,00001.172575,00000.970693,00002.090006,00001.897675,00002.196657,00002.333082,00001.527655,00000.888256,-00002.052421,-00000.207403,-00000.420630,00000.245323,-00000.088359,-00000.040792
0000000001387,00001.244575,00000.961848,00001.171700,00000.963651,00002.088743,00001.896576,00002.196605,00002.330780,00001.524645,00000.880838,-00002.067633,-00000.209484,-00000.417174,00000.251942,-00000.088704,-00000.038442
0000000001388,00001.236904,00000.959555,00001.170903,00000.956956,00002.087596,00001.895567,00002.196528,00002.328629,00001.521797,00000.873355,-00002.081721,-00000.211390,-00000.413953,00000.258183,-00000.087917,-00000.036177
0000000001389,00001.230019,00000.957771,00001.170157,00000.951687,00002.086158,00001.894632,00002.196484,00002.326307,00001.519234,00000.866677,-00002.094671,-00000.213525,-00000.411010,00000.263818,-00000.086760,-00000.034540
0000000001390,00001.223852,00000.955819,00001.169479,00000.946714,00002.084819,00001.894135,00002.196418,00002.324838,00001.517898,00000.860306,-00002.106664,-00000.215510,-00000.407905,00000.269494,-00000.086091,-00000.033337
0000000001391,00001.218354,00000.953937,00001.168844,00000.942591,00002.083595,00001.893339,00002.196380,00002.323224,00001.516804,00000.854621,-00002.118051,-00000.218053,-00000.405037,00000.275379,-00000.085468,-00000.032306
0000000001392,00001.212741,00000.952276,00001.168267,00000.939082,00002.082455,00001.892916,00002.196324,00002.321611,00001.515667,00000.848835,-00002.128624,-00000.220469,-00000.402394,00000.282025,-00000.085261,-00000.031645
0000000001393,00001.208060,00000.950674,00001.167727,00000.935935,00002.081413,00001.892601,00002.196292,00002.320600,00001.515099,00000.843633,-00002.137955,-00000.222996,-00000.400316,00000.288124,-00000.084731,-00000.031130
0000000001394,00001.203644,00000.949259,00001.167598,00000.932949,00002.080442,00001.892241,00002.196244,00002.319590,00001.514856,00000.839070,-00002.145867,-00000.225053,-00000.398428,00000.293419,-00000.084555,-00000.030204
0000000001395,00001.199660,00000.948258,00001.167501,00000.930269,00002.079555,00001.891973,00002.196217,00002.318366,00001.514735,00000.835004,-00002.151634,-00000.226842,-00000.396659,00000.297885,-00000.084830,-00000.029404
0000000001396,00001.195901,00000.947780,00001.167391,00000.927727,00002.079092,00001.891667,00002.196539,00002.317143,00001.514529,00000.831120,-00002.156193,-00000.228592,-00000.395052,00000.302029,-00000.085042,-00000.028253
0000000001397,00001.192509,00000.946927,00001.167308,00000.925446,00002.078337,00001.891438,00002.196516,00002.316465,00001.514063,00000.827658,-00002.160376,-00000.230478,-00000.393546,00000.306194,-00000.085276,-00000.027208
0000000001398,00001.189309,00000.946520,00001.167215,00000.923282,00002.077579,00001.891178,00002.196790,00002.315424,00001.513524,00000.824351,-00002.164257,-00000.232694,-00000.391815,00000.310448,-00000.085457,-00000.025503
0000000001399,00001.186421,00000.946157,00001.167145,00000.921340,00002.077299,00001.891346,00002.197133,00002.314846,00001.513491,00000.822130,-00002.167456,-00000.234662,-00000.390533,00000.314357,-00000.085656,-00000.023888
0000000001400,00001.184059,00000.945811,00001.167428,00000.920223,00002.077017,00001.891487,00002.197367,00002.315048,00001.513758,00000.820767,-00002.168946,-00000.236911,-00000.389785,00000.317252,-00000.086173,-00000.022436
0000000001401,00001.183052,00000.945502,00001.168094,00000.919659,00002.077142,00001.891267,00002.198022,00002.315281,00001.514455,00000.819601,-00002.168767,-00000.238586,-00000.389782,00000.319491,-00000.086705,-00000.021424
0000000001402,00001.182493,00000.945932,00001.169060,00000.919433,00002.077627,00001.891025,00002.198583,00002.316542,00001.515407,00000.820980,-00002.165681,-00000.240138,-00000.390234,00000.321231,-00000.086782,-00000.020551
0000000001403,00001.180910,00000.946758,00001.169990,00000.920041,00002.078096,00001.891201,00002.199504,00002.317829,00001.516364,00000.823253,-00002.160450,-00000.241565,-00000.390957,00000.322774,-00000.085784,-00000.019327
0000000001404,00001.181523,00000.947487,00001.170813,00000.920575,00002.078509,00001.891719,00002.200344,00002.319265,00001.517900,00000.825152,-00002.154195,-00000.243612,-00000.392067,00000.323892,-00000.084399,-00000.018221
0000000001405,00001.182715,00000.948915,00001.171604,00000.921455,00002.079271,00001.891869,00002.201491,00002.320724,00001.519803,00000.827087,-00002.146839,-00000.245914,-00000.393771,00000.324843,-00000.083186,-00000.017904
0000000001406,00001.184687,00000.950624,00001.173030,00000.922635,00002.079986,00001.892674,00002.202569,00002.322672,00001.521474,00000.829429,-00002.138613,-00000.249108,-00000.395441,00000.325432,-00000.082007,-00000.018051
0000000001407,00001.187879,00000.952566,00001.174430,00000.926650,00002.080997,00001.893164,00002.203545,00002.324639,00001.523456,00000.833616,-00002.130174,-00000.253245,-00000.396892,00000.326241,-00000.080975,-00000.018507
0000000001408,00001.190646,00000.954384,00001.175644,00000.930919,00002.081605,00001.894212,00002.204826,00002.326660,00001.525604,00000.837787,-00002.122445,-00000.257414,-00000.397951,00000.327831,-00000.079608,-00000.018632
0000000001409,00001.193726,00000.956037,00001.176835,00000.934700,00002.082103,00001.895355,00002.206019,00002.329060,00001.527654,00000.841714,-00002.115986,-00000.261299,-00000.398823,00000.329246,-00000.078729,-00000.018294
0000000001410,00001.201161,00000.957947,00001.178231,00000.938334,00002.082621,00001.896246,00002.207110,00002.331144,00001.529846,00000.848530,-00002.110132,-00000.264849,-00000.399725,00000.330236,-00000.078654,-00000.017675
0000000001411,00001.208499,00000.960080,00001.179245,00000.941915,00002.083408,00001.896857,00002.208489,00002.332824,00001.532317,00000.855138,-00002.103908,-00000.267793,-00000.400467,00000.331078,-00000.078994,-00000.016662
0000000001412,00001.215192,00000.962069,00001.180434,00000.945372,00002.083849,00001.897616,00002.209780,00002.334235,00001.534545,00000.860940,-00002.098199,-00000.270452,-00000.401598,00000.331921,-00000.078930,-00000.015772
0000000001413,00001.222527,00000.963884,00001.181660,00000.948784,00002.084156,00001.898861,00002.212042,00002.335666,00001.536649,00000.866566,-00002.092538,-00000.272959,-00000.402593,00000.333000,-00000.078494,-00000.014910
0000000001414,00001.228950,00000.965940,00001.182672,00000.952089,00002.084532,00001.899870,00002.214592,00002.337229,00001.538546,00000.871868,-00002.086590,-00000.275585,-00000.403555,00000.333718,-00000.077714,-00000.013427
0000000001415,00001.235194,00000.967848,00001.183716,00000.955719,00002.085156,00001.900930,00002.217244,00002.338447,00001.540699,00000.876657,-00002.081045,-00000.277719,-00000.404402,00000.334637,-00000.076981,-00000.011968
0000000001416,00001.241387,00000.969599,00001.184940,00000.958533,00002.085838,00001.901789,00002.219415,00002.339779,00001.542677,00000.881171,-00002.075618,-00000.279229,-00000.405584,00000.335611,-00000.076316,-00000.010705
0000000001417,00001.247066,00000.971586,00001.185829,00000.960898,00002.086369,00001.902691,00002.222035,00002.340815,00001.544873,00000.885248,-00002.070535,-00000.280320,-00000.406668,00000.336030,-00000.075329,-00000.009462
0000000001418,00001.252339,00000.973802,00001.186871,00000.963656,00002.086950,00001.903786,00002.224609,00002.341949,00001.546920,00000.888728,-00002.065552,-00000.281606,-00000.407674,00000.336134,-00000.074038,-00000.008387
0000000001419,00001.258261,00000.975856,00001.187990,00000.966032,00002.087403,00001.905279,00002.227202,00002.343557,00001.548789,00000.892561,-00002.060499,-00000.282897,-00000.408597,00000.336128,-00000.072835,-00000.007330
0000000001420,00001.263838,00000.977743,00001.189240,00000.968380,00002.087897,00001.906211,00002.229756,00002.344885,00001.550531,00000.895524,-00002.055895,-00000.283992,-00000.409453,00000.336579,-00000.071373,-00000.006415
0000000001421,00001.269243,00000.979492,00001.190556,00000.970039,00002.088282,00001.907120,00002.231600,00002.346616,00001.552123,00000.898425,-00002.051956,-00000.284728,-00000.410239,00000.337300,-00000.069985,-00000.005514
0000000001422,00001.273265,00000.981097,00001.191257,00000.971676,00002.088703,00001.907550,00002.233774,00002.347384,00001.552881,00000.900584,-00002.048036,-00000.284572,-00000.410605,00000.338409,-00000.068741,-00000.005098
0000000001423,00001.276777,00000.982224,00001.191651,00000.972726,00002.089031,00001.907598,00002.235345,00002.348133,00001.553510,00000.900151,-00002.043958,-00000.284473,-00000.411274,00000.339385,-00000.067560,-00000.005057
0000000001424,00001.278024,00000.982865,00001.191886,00000.973393,00002.089389,00001.907238,00002.236833,00002.348423,00001.553429,00000.895821,-00002.040983,-00000.284703,-00000.411949,00000.339604,-00000.066501,-00000.004703
0000000001425,00001.277387,00000.982735,00001.192221,00000.970296,00002.089306,00001.906554,00002.237807,00002.347972,00001.552514,00000.891462,-00002.038600,-00000.285344,-00000.412881,00000.339347,-00000.066221,-00000.004305
0000000001426,00001.274458,00000.982193,00001.192058,00000.966874,00002.089248,00001.905885,00002.238348,00002.347131,00001.551357,00000.886688,-00002.036431,-00000.285540,-00000.413455,00000.339171,-00000.066407,-00000.003641
0000000001427,00001.271375,00000.981357,00001.191981,00000.963512,00002.089177,00001.904939,00002.238452,00002.346384,00001.548763,00000.882251,-00002.034764,-00000.286086,-00000.413886,00000.338952,-00000.066532,-00000.003302
0000000001428,00001.268156,00000.980170,00001.191842,00000.959873,00002.089128,00001.903644,00002.238550,00002.345306,00001.546327,00000.877824,-00002.033280,-00000.286252,-00000.414737,00000.338801,-00000.066328,-00000.003099
0000000001429,00001.264807,00000.979095,00001.191414,00000.956648,00002.089067,00001.902477,00002.237912,00002.344307,00001.544119,00000.873322,-00002.031499,-00000.286355,-00000.415830,00000.338615,-00000.066071,-00000.003174
0000000001430,00001.262066,00000.977722,00001.191295,00000.953550,00002.089025,00001.901737,00002.237633,00002.343751,00001.541683,00000.868464,-00002.029147,-00000.286496,-00000.416918,00000.338487,-00000.065898,-00000.003364
0000000001431,00001.259215,00000.976807,00001.191293,00000.951167,00002.088973,00001.900743,00002.237816,00002.342901,00001.539803,00000.863543,-00002.026542,-00000.286583,-00000.417847,00000.337965,-00000.065679,-00000.003065
0000000001432,00001.256519,00000.976000,00001.191193,00000.948530,00002.088938,00001.900113,00002.237941,00002.342428,00001.538092,00000.859045,-00002.024178,-00000.286341,-00000.418411,00000.337494,-00000.065169,-00000.002501
0000000001433,00001.254092,00000.975585,00001.191191,00000.946502,00002.088894,00001.899630,00002.238097,00002.341705,00001.536492,00000.854493,-00002.021597,-00000.285689,-00000.418477,00000.337050,-00000.064620,-00000.001883
0000000001434,00001.251797,00000.975261,00001.190742,00000.944619,00002.088864,00001.898731,00002.238566,00002.340939,00001.534672,00000.850664,-00002.018496,-00000.285120,-00000.418956,00000.336286,-00000.064185,-00000.001766
0000000001435,00001.250093,00000.974544,00001.190741,00000.942893,00002.088826,00001.898319,00002.239061,00002.340686,00001.533673,00000.847514,-00002.014485,-00000.284203,-00000.419738,00000.334819,-00000.064081,-00000.001241
0000000001436,00001.248502,00000.974268,00001.191085,00000.941653,00002.088800,00001.897917,00002.239461,00002.340035,00001.533575,00000.844618,-00002.009306,-00000.283356,-00000.420872,00000.333080,-00000.063711,-00000.000415
0000000001437,00001.248866,00000.974384,00001.191446,00000.940546,00002.088768,00001.897567,00002.239882,00002.339819,00001.533450,00000.841936,-00002.003715,-00000.282575,-00000.421900,00000.330744,-00000.062533,00000.000032
0000000001438,00001.249688,00000.974512,00001.191739,00000.939853,00002.088747,00001.897224,00002.240222,00002.339627,00001.533366,00000.839470,-00001.998580,-00000.281854,-00000.422865,00000.328175,-00000.061130,00000.000372
0000000001439,00001.250361,00000.974247,00001.192047,00000.939273,00002.088719,00001.896926,00002.240581,00002.339806,00001.533260,00000.837188,-00001.993094,-00000.281189,-00000.423741,00000.325823,-00000.059402,00000.000753
0000000001440,00001.250698,00000.974356,00001.192296,00000.939047,00002.088701,00001.896997,00002.240871,00002.340006,00001.533188,00000.836540,-00001.987997,-00000.280938,-00000.424562,00000.323999,-00000.057845,00000.001405
0000000001441,00001.250545,00000.974131,00001.192558,00000.939642,00002.088678,00001.896743,00002.241176,00002.340158,00001.532372,00000.836410,-00001.982965,-00000.280372,-00000.425670,00000.322359,-00000.057099,00000.002455
0000000001442,00001.250469,00000.973861,00001.193133,00000.939086,00002.088662,00001.896441,00002.241423,00002.340328,00001.532312,00000.835859,-00001.978263,-00000.279432,-00000.426370,00000.321532,-00000.056862,00000.003373
0000000001443,00001.249976,00000.974032,00001.193356,00000.938504,00002.088642,00001.896225,00002.242046,00002.340095,00001.532705,00000.833934,-00001.974342,-00000.278588,-00000.426588,00000.320499,-00000.056227,00000.004267
0000000001444,00001.249186,00000.974165,00001.193483,00000.938031,00002.088628,00001.895967,00002.242618,00002.339877,00001.532654,00000.831651,-00001.971064,-00000.278513,-00000.427183,00000.319432,-00000.055662,00000.004685
0000000001445,00001.248403,00000.973948,00001.193673,00000.937535,00002.088612,00001.896146,00002.242786,00002.339679,00001.532263,00000.829650,-00001.968089,-00000.278883,-00000.427731,00000.318190,-00000.055122,00000.005083
0000000001446,00001.247731,00000.973698,00001.194143,00000.936770,00002.088600,00001.896290,00002.242911,00002.339493,00001.532219,00000.828069,-00001.964574,-00000.279182,-00000.428238,00000.316556,-00000.054641,00000.005440
0000000001447,00001.246702,00000.973876,00001.194305,00000.935985,00002.088586,00001.896079,00002.243416,00002.339324,00001.532612,00000.826728,-00001.960952,-00000.279860,-00000.428705,00000.315136,-00000.054544,00000.005416
0000000001448,00001.246129,00000.974027,00001.194705,00000.935696,00002.088939,00001.895839,00002.242796,00002.339166,00001.532575,00000.825382,-00001.956871,-00000.280115,-00000.428411,00000.314471,-00000.055586,00000.004994
0000000001449,00001.244040,00000.973943,00001.195910,00000.935145,00002.088864,00001.895092,00002.240160,00002.338525,00001.531790,00000.822732,-00001.945235,-00000.280546,-00000.428195,00000.315597,-00000.055664,00000.004977
0000000001450,00001.242932,00000.973763,00001.196336,00000.934522,00002.088854,00001.894940,00002.238619,00002.338403,00001.531874,00000.821035,-00001.938944,-00000.281090,-00000.428641,00000.316892,-00000.054035,00000.004959
0000000001451,00001.241899,00000.973509,00001.196572,00000.933950,00002.088438,00001.894819,00002.237552,00002.338342,00001.531846,00000.819025,-00001.933515,-00000.281275,-00000.429099,00000.317645,-00000.052103,00000.004962
0000000001452,00001.240077,00000.973140,00001.197861,00000.932570,00002.088438,00001.894587,00002.235333,00002.338186,00001.531169,00000.815507,-00001.926078,-00000.281534,-00000.428418,00000.319026,-00000.049798,00000.005313
0000000001453,00001.237799,00000.972463,00001.198234,00000.931033,00002.088076,00001.894389,00002.236708,00002.337328,00001.529504,00000.812149,-00001.921923,-00000.282116,-00000.428564,00000.320201,-00000.050011,00000.005611
0000000001454,00001.236444,00000.971989,00001.198088,00000.930340,00002.087706,00001.894295,00002.237302,00002.336581,00001.527788,00000.810167,-00001.921933,-00000.282552,-00000.427897,00000.321462,-00000.050295,00000.005547
0000000001455,00001.233981,00000.971121,00001.198426,00000.928409,00002.087090,00001.893778,00002.236934,00002.335961,00001.525538,00000.805789,-00001.926013,-00000.284435,-00000.425943,00000.324814,-00000.050798,00000.005447
0000000001456,00001.231522,00000.970381,00001.198714,00000.926764,00002.086927,00001.893338,00002.237708,00002.335434,00001.523622,00000.801699,-00001.928761,-00000.285312,-00000.425006,00000.327668,-00000.052314,00000.005726
0000000001457,00001.230627,00000.970406,00001.198787,00000.926418,00002.087017,00001.892975,00002.238581,00002.334820,00001.522787,00000.799703,-00001.927895,-00000.285156,-00000.424990,00000.328377,-00000.053229,00000.005277
0000000001458,00001.228304,00000.970499,00001.198659,00000.925070,00002.087228,00001.892292,00002.239474,00002.333737,00001.520917,00000.796155,-00001.926735,-00000.284474,-00000.425283,00000.329613,-00000.054746,00000.003404
0000000001459,00001.228866,00000.971665,00001.198187,00000.923922,00002.087046,00001.892072,00002.239145,00002.333178,00001.519689,00000.793498,-00001.923208,-00000.283168,-00000.425532,00000.329939,-00000.056038,00000.002172
0000000001460,00001.234565,00000.974308,00001.197629,00000.922519,00002.087382,00001.891608,00002.237892,00002.332618,00001.519549,00000.791130,-00001.907246,-00000.278159,-00000.427739,00000.329264,-00000.055471,00000.000651
0000000001461,00001.238837,00000.975729,00001.196676,00000.920734,00002.087673,00001.891028,00002.235905,00002.332199,00001.519867,00000.790226,-00001.886241,-00000.267352,-00000.429230,00000.325881,-00000.049912,-00000.003975
0000000001462,00001.235293,00000.973578,00001.194684,00000.918417,00002.087061,00001.889908,00002.233205,00002.330418,00001.517706,00000.788451,-00001.877852,-00000.262788,-00000.429618,00000.324948,-00000.048658,-00000.005198
0000000001463,00001.233343,00000.972259,00001.193952,00000.916460,00002.086781,00001.889443,00002.232261,00002.328736,00001.515865,00000.787433,-00001.873361,-00000.260568,-00000.430020,00000.324775,-00000.048310,-00000.005535
0000000001464,00001.228802,00000.969173,00001.192729,00000.910425,00002.086302,00001.888559,00002.230103,00002.324930,00001.512123,00000.783896,-00001.866524,-00000.256287,-00000.429927,00000.324733,-00000.047657,-00000.007977
0000000001465,00001.224210,00000.966546,00001.190962,00000.903474,00002.084806,00001.887806,00002.228265,00002.321327,00001.508574,00000.780522,-00001.861430,-00000.251917,-00000.429849,00000.325422,-00000.047463,-00000.009693
0000000001466,00001.222031,00000.965387,00001.190581,00000.900386,00002.084322,00001.887453,00002.227229,00002.319505,00001.507413,00000.778704,-00001.859337,-00000.249412,-00000.430214,00000.325852,-00000.047567,-00000.010466
0000000001467,00001.218083,00000.963323,00001.189496,00000.894565,00002.083120,00001.886865,00002.225456,00002.316346,00001.505653,00000.774651,-00001.856037,-00000.243887,-00000.431544,00000.326738,-00000.047024,-00000.011087
0000000001468,00001.216302,00000.962407,00001.188849,00000.892155,00002.082448,00001.886258,00002.225061,00002.314613,00001.504633,00000.772827,-00001.854018,-00000.240892,-00000.431740,00000.326817,-00000.046796,-00000.011726
0000000001469,00001.213207,00000.960786,00001.188022,00000.887558,00002.081887,00001.885122,00002.223973,00002.312181,00001.502198,00000.769648,-00001.849332,-00000.235908,-00000.431754,00000.326471,-00000.046367,-00000.013610
0000000001470,00001.210934,00000.959406,00001.186955,00000.884007,00002.081410,00001.884880,00002.223047,00002.310111,00001.500125,00000.766942,-00001.845343,-00000.232029,-00000.431767,00000.326176,-00000.046003,-00000.014852
0000000001471,00001.209736,00000.959160,00001.186808,00000.882470,00002.081156,00001.884740,00002.222812,00002.309154,00001.499569,00000.765763,-00001.844135,-00000.230312,-00000.431603,00000.326193,-00000.045833,-00000.015197
0000000001472,00001.208342,00000.958022,00001.186647,00000.880038,00002.080788,00001.884556,00002.221696,00002.308260,00001.498250,00000.763634,-00001.842732,-00000.226539,-00000.431638,00000.325577,-00000.045548,-00000.016202
0000000001473,00001.207353,00000.957541,00001.186616,00000.878773,00002.080296,00001.884500,00002.221588,00002.307882,00001.497892,00000.762676,-00001.842105,-00000.224881,-00000.431424,00000.323844,-00000.045428,-00000.017225
0000000001474,00001.205951,00000.956644,00001.186484,00000.876528,00002.080055,00001.883988,00002.221379,00002.307177,00001.496459,00000.760281,-00001.841367,-00000.223004,-00000.430397,00000.321763,-00000.045203,-00000.018654
0000000001475,00001.204757,00000.956243,00001.186008,00000.874254,00002.079851,00001.883915,00002.220839,00002.306213,00001.495602,00000.757516,-00001.839650,-00000.224309,-00000.429160,00000.321080,-00000.044649,-00000.018783
0000000001476,00001.204397,00000.956253,00001.185569,00000.873462,00002.079717,00001.883888,00002.221171,00002.306344,00001.496499,00000.756325,-00001.837743,-00000.225044,-00000.428865,00000.320370,-00000.044197,-00000.018833
0000000001477,00001.204160,00000.956636,00001.185229,00000.874184,00002.079926,00001.883830,00002.221387,00002.306592,00001.497812,00000.754512,-00001.833300,-00000.226771,-00000.428219,00000.319169,-00000.043430,-00000.020749
0000000001478,00001.204322,00000.957324,00001.185666,00000.874798,00002.080103,00001.884143,00002.221934,00002.307167,00001.498931,00000.752605,-00001.829155,-00000.228967,-00000.427306,00000.319960,-00000.042414,-00000.021654
0000000001479,00001.204418,00000.957642,00001.185737,00000.875384,00002.080020,00001.884118,00002.222558,00002.307267,00001.499322,00000.751762,-00001.827329,-00000.230536,-00000.427074,00000.320507,-00000.042499,-00000.021860
0000000001480,00001.204903,00000.958181,00001.186461,00000.875094,00002.080183,00001.884389,00002.225833,00002.307741,00001.499853,00000.750627,-00001.824435,-00000.233260,-00000.427419,00000.320011,-00000.042710,-00000.021512
0000000001481,00001.206042,00000.958640,00001.187077,00000.875210,00002.080322,00001.884619,00002.228621,00002.309234,00001.501031,00000.750749,-00001.819432,-00000.235579,-00000.428439,00000.319951,-00000.042526,-00000.021215
0000000001482,00001.207375,00000.959756,00001.187602,00000.874946,00002.080441,00001.885178,00002.230269,00002.310867,00001.501671,00000.751578,-00001.812633,-00000.236102,-00000.428582,00000.321714,-00000.043458,-00000.021326
0000000001483,00001.207972,00000.960231,00001.187424,00000.873765,00002.080639,00001.885080,00002.231345,00002.310629,00001.502056,00000.752711,-00001.807188,-00000.236704,-00000.429010,00000.322132,-00000.043906,-00000.021227
0000000001484,00001.209017,00000.961110,00001.187172,00000.869363,00002.080348,00001.884482,00002.229685,00002.309878,00001.500004,00000.754700,-00001.792414,-00000.237060,-00000.430156,00000.322482,-00000.042819,-00000.020973
0000000001485,00001.209475,00000.961152,00001.187085,00000.866618,00002.080265,00001.884353,00002.229037,00002.308994,00001.499214,00000.755572,-00001.784386,-00000.236456,-00000.430513,00000.323204,-00000.041770,-00000.020828
0000000001486,00001.210297,00000.960807,00001.186520,00000.860376,00002.080029,00001.883500,00002.227721,00002.307397,00001.497221,00000.757498,-00001.767561,-00000.233946,-00000.430710,00000.322669,-00000.041001,-00000.021359
0000000001487,00001.210634,00000.960150,00001.186039,00000.852885,00002.079828,00001.881686,00002.226238,00002.305676,00001.494074,00000.759138,-00001.752512,-00000.231810,-00000.431603,00000.320037,-00000.041434,-00000.021085
0000000001488,00001.210947,00000.959827,00001.185992,00000.849200,00002.079709,00001.881102,00002.225375,00002.305064,00001.492818,00000.759679,-00001.746749,-00000.230889,-00000.431418,00000.319021,-00000.040890,-00000.020987
0000000001489,00001.211913,00000.958953,00001.185952,00000.842645,00002.079556,00001.880007,00002.223878,00002.304052,00001.491051,00000.760995,-00001.736609,-00000.228845,-00000.431118,00000.316569,-00000.040615,-00000.021132
0000000001490,00001.212199,00000.958805,00001.185953,00000.840099,00002.079512,00001.879861,00002.223591,00002.303634,00001.490512,00000.761776,-00001.732153,-00000.227354,-00000.430996,00000.315527,-00000.041245,-00000.021742
0000000001491,00001.211890,00000.957720,00001.185919,00000.833810,00002.079751,00001.878951,00002.222722,00002.302834,00001.488725,00000.762417,-00001.726723,-00000.224384,-00000.429670,00000.314683,-00000.041642,-00000.022863
0000000001492,00001.210176,00000.956434,00001.185890,00000.827367,00002.079229,00001.878176,00002.221619,00002.301791,00001.486116,00000.760423,-00001.722826,-00000.223307,-00000.428179,00000.313601,-00000.041255,-00000.023454
0000000001493,00001.206903,00000.954613,00001.185503,00000.819706,00002.078059,00001.876065,00002.220681,00002.299815,00001.484620,00000.755461,-00001.718420,-00000.222390,-00000.427272,00000.311955,-00000.041650,-00000.024682
0000000001494,00001.204832,00000.952848,00001.185119,00000.815919,00002.077703,00001.873627,00002.220202,00002.298923,00001.483345,00000.752194,-00001.717194,-00000.221449,-00000.426648,00000.311588,-00000.041834,-00000.025462
0000000001495,00001.195461,00000.949020,00001.184484,00000.805970,00002.076397,00001.867839,00002.219111,00002.296648,00001.480448,00000.744464,-00001.717617,-00000.220808,-00000.425969,00000.310604,-00000.041781,-00000.026029
0000000001496,00001.191455,00000.947713,00001.184221,00000.801008,00002.075852,00001.865296,00002.218892,00002.295665,00001.479214,00000.740815,-00001.719080,-00000.221052,-00000.425896,00000.309616,-00000.042328,-00000.025893
0000000001497,00001.184072,00000.944650,00001.183719,00000.791099,00002.074458,00001.860747,00002.217271,00002.294237,00001.476205,00000.733689,-00001.725027,-00000.220833,-00000.424603,00000.307111,-00000.045104,-00000.026759
0000000001498,00001.177062,00000.942042,00001.183292,00000.781212,00002.073272,00001.856511,00002.216253,00002.293021,00001.473643,00000.725809,-00001.732266,-00000.221009,-00000.422777,00000.305704,-00000.048192,-00000.027134
0000000001499,00001.173512,00000.940891,00001.183090,00000.776637,00002.072545,00001.854420,00002.215784,00002.292692,00001.472487,00000.722178,-00001.736789,-00000.221689,-00000.422518,00000.304708,-00000.048653,-00000.027319
0000000001500,00001.167347,00000.939204,00001.182394,00000.768538,00002.071280,00001.849312,00002.214988,00002.291705,00001.470478,00000.714921,-00001.748084,-00000.222826,-00000.422453,00000.300393,-00000.049762,-00000.027610
0000000001501,00001.162099,00000.937406,00001.182164,00000.761643,00002.070204,00001.845325,00002.214309,00002.291229,00001.468043,00000.708743,-00001.759876,-00000.223794,-00000.422034,00000.297083,-00000.052521,-00000.027858
0000000001502,00001.160183,00000.936585,00001.182092,00000.758596,00002.069736,00001.843748,00002.214021,00002.291026,00001.467355,00000.705987,-00001.764519,-00000.224200,-00000.421838,00000.295260,-00000.053704,-00000.027955
0000000001503,00001.156000,00000.935539,00001.181907,00000.752817,00002.068526,00001.840589,00002.213124,00002.289924,00001.466109,00000.700775,-00001.774230,-00000.224601,-00000.421874,00000.291625,-00000.054788,-00000.028514
0000000001504,00001.152439,00000.934649,00001.181023,00000.747897,00002.067859,00001.837900,00002.213085,00002.288987,00001.465049,00000.695975,-00001.785762,-00000.223854,-00000.420816,00000.289982,-00000.054986,-00000.028990
0000000001505,00001.150852,00000.934134,00001.180987,00000.744763,00002.067943,00001.837209,00002.212922,00002.288940,00001.464571,00000.693852,-00001.791832,-00000.223903,-00000.419975,00000.289406,-00000.055304,-00000.029436
0000000001506,00001.148056,00000.933090,00001.180966,00000.738864,00002.067363,00001.835748,00002.211825,00002.288511,00001.463377,00000.690082,-00001.803286,-00000.223260,-00000.418111,00000.287730,-00000.057238,-00000.030138
0000000001507,00001.145676,00000.932200,00001.180586,00000.733479,00002.066506,00001.834867,00002.211255,00002.288147,00001.462723,00000.686872,-00001.813037,-00000.223075,-00000.416524,00000.285940,-00000.057797,-00000.030736
0000000001508,00001.144266,00000.931761,00001.180647,00000.731454,00002.066351,00001.834134,00002.211186,00002.287820,00001.462415,00000.685086,-00001.816550,-00000.223568,-00000.416009,00000.285343,-00000.057442,-00000.030969
0000000001509,00001.142087,00000.931070,00001.180676,00000.727534,00002.066007,00001.832768,00002.210711,00002.287558,00001.461541,00000.681893,-00001.822878,-00000.223700,-00000.414372,00000.285359,-00000.057970,-00000.031443
0000000001510,00001.141307,00000.930799,00001.180657,00000.725248,00002.065827,00001.832498,00002.210301,00002.287626,00001.461329,00000.680470,-00001.826860,-00000.223402,-00000.413298,00000.285551,-00000.058785,-00000.031315
0000000001511,00001.139205,00000.930976,00001.180685,00000.720437,00002.065199,00001.831375,00002.210320,00002.287030,00001.460980,00000.677238,-00001.834557,-00000.224648,-00000.412427,00000.284448,-00000.059476,-00000.031012
0000000001512,00001.137416,00000.931127,00001.180346,00000.716341,00002.065027,00001.830419,00002.210336,00002.286886,00001.460320,00000.674487,-00001.841471,-00000.226071,-00000.411686,00000.283509,-00000.059339,-00000.030754
0000000001513,00001.136999,00000.930796,00001.180432,00000.714528,00002.064991,00001.830396,00002.210339,00002.287038,00001.459834,00000.673286,-00001.844692,-00000.226314,-00000.411137,00000.283434,-00000.059292,-00000.030614
0000000001514,00001.135901,00000.930611,00001.180494,00000.712399,00002.064850,00001.830311,00002.209989,00002.287618,00001.459344,00000.671485,-00001.850462,-00000.226038,-00000.409862,00000.284097,-00000.058094,-00000.031503
0000000001515,00001.134602,00000.930453,00001.180546,00000.710587,00002.064729,00001.830601,00002.210417,00002.287749,00001.459290,00000.669952,-00001.854649,-00000.226529,-00000.407688,00000.285387,-00000.056711,-00000.033349
0000000001516,00001.134017,00000.930569,00001.180538,00000.709946,00002.064649,00001.830862,00002.210416,00002.287767,00001.459643,00000.669442,-00001.856898,-00000.226750,-00000.406747,00000.285960,-00000.056452,-00000.034172
0000000001517,00001.133725,00000.930055,00001.180584,00000.707773,00002.064558,00001.831433,00002.209692,00002.288601,00001.459544,00000.668576,-00001.862305,-00000.227135,-00000.405399,00000.286972,-00000.056764,-00000.034895
0000000001518,00001.133228,00000.930205,00001.180629,00000.707005,00002.064540,00001.831368,00002.209748,00002.288627,00001.459513,00000.667845,-00001.864660,-00000.226939,-00000.404987,00000.287420,-00000.056547,-00000.035223
0000000001519,00001.132690,00000.929745,00001.180661,00000.705995,00002.064466,00001.831501,00002.209123,00002.288971,00001.459071,00000.667216,-00001.867098,-00000.226208,-00000.404264,00000.287490,-00000.056120,-00000.036516
0000000001520,00001.132284,00000.929916,00001.181019,00000.705745,00002.064779,00001.831716,00002.209223,00002.289245,00001.459080,00000.666901,-00001.867668,-00000.225673,-00000.403946,00000.287172,-00000.056277,-00000.037070
0000000001521,00001.131886,00000.929861,00001.181356,00000.705286,00002.064669,00001.832160,00002.209039,00002.289859,00001.458702,00000.666413,-00001.869659,-00000.226218,-00000.402652,00000.287279,-00000.056253,-00000.037725
0000000001522,00001.131185,00000.929815,00001.181280,00000.704531,00002.064576,00001.832175,00002.209245,00002.290383,00001.458743,00000.665997,-00001.869903,-00000.227044,-00000.402276,00000.287007,-00000.056595,-00000.039734
0000000001523,00001.130588,00000.929776,00001.181215,00000.704252,00002.065222,00001.832551,00002.209058,00002.290465,00001.458416,00000.665643,-00001.869748,-00000.227385,-00000.401593,00000.287502,-00000.056886,-00000.042532
0000000001524,00001.130294,00000.929961,00001.181197,00000.704145,00002.065159,00001.832758,00002.209155,00002.290392,00001.458441,00000.665507,-00001.868924,-00000.227231,-00000.401501,00000.287866,-00000.056689,-00000.043427
0000000001525,00001.129467,00000.929174,00001.180782,00000.702109,00002.064630,00001.832322,00002.208982,00002.289385,00001.458521,00000.664137,-00001.868189,-00000.226456,-00000.400571,00000.289321,-00000.056241,-00000.043137
0000000001526,00001.126586,00000.927779,00001.180428,00000.699650,00002.064543,00001.831225,00002.209197,00002.288165,00001.458226,00000.662609,-00001.863572,-00000.224708,-00000.399778,00000.290197,-00000.056222,-00000.043615
0000000001527,00001.125504,00000.926949,00001.180402,00000.698358,00002.064098,00001.830372,00002.208911,00002.287380,00001.457543,00000.661917,-00001.859464,-00000.224249,-00000.400148,00000.290455,-00000.056374,-00000.044005
0000000001528,00001.122850,00000.925159,00001.180468,00000.695731,00002.063726,00001.829202,00002.208048,00002.286458,00001.457031,00000.660718,-00001.849977,-00000.222829,-00000.400507,00000.292613,-00000.055972,-00000.044717
0000000001529,00001.120590,00000.923272,00001.180162,00000.693495,00002.063048,00001.827843,00002.206950,00002.284948,00001.456232,00000.660061,-00001.842990,-00000.220895,-00000.399724,00000.295176,-00000.055631,-00000.044961
0000000001530,00001.119234,00000.922442,00001.179863,00000.692706,00002.062744,00001.827258,00002.206093,00002.284138,00001.455348,00000.659565,-00001.839376,-00000.220103,-00000.399401,00000.296048,-00000.055509,-00000.044511
0000000001531,00001.117512,00000.920959,00001.180009,00000.691283,00002.062211,00001.826914,00002.204923,00002.283335,00001.454800,00000.659079,-00001.832514,-00000.218574,-00000.399145,00000.298100,-00000.054874,-00000.043697
0000000001532,00001.115683,00000.920060,00001.179771,00000.690071,00002.061758,00001.826621,00002.204290,00002.282289,00001.454696,00000.658303,-00001.824495,-00000.217635,-00000.399291,00000.299122,-00000.054695,-00000.043367
0000000001533,00001.115009,00000.919861,00001.179798,00000.689526,00002.061559,00001.826470,00002.203972,00002.281944,00001.454989,00000.658310,-00001.821088,-00000.217378,-00000.399305,00000.299809,-00000.054573,-00000.043054
0000000001534,00001.113915,00000.919125,00001.179954,00000.688939,00002.061565,00001.826243,00002.203118,00002.281468,00001.455220,00000.658374,-00001.815856,-00000.216980,-00000.399789,00000.300576,-00000.054439,-00000.042457
0000000001535,00001.113835,00000.919005,00001.180429,00000.688887,00002.062131,00001.826522,00002.202984,00002.281675,00001.455203,00000.659148,-00001.812838,-00000.216827,-00000.400608,00000.301095,-00000.054777,-00000.042900
0000000001536,00001.114004,00000.919122,00001.181580,00000.688757,00002.063141,00001.827013,00002.203002,00002.281964,00001.455765,00000.661626,-00001.807745,-00000.216147,-00000.402349,00000.301308,-00000.056427,-00000.043777
0000000001537,00001.113785,00000.918859,00001.182922,00000.687921,00002.062912,00001.827431,00002.202655,00002.281485,00001.456243,00000.664099,-00001.807037,-00000.214118,-00000.403106,00000.302578,-00000.058195,-00000.045249
0000000001538,00001.113694,00000.919117,00001.183508,00000.687913,00002.063039,00001.827614,00002.202488,00002.281258,00001.456397,00000.665200,-00001.807632,-00000.213003,-00000.403192,00000.303348,-00000.059328,-00000.045556
0000000001539,00001.113159,00000.919217,00001.185289,00000.687565,00002.063188,00001.827580,00002.202580,00002.280883,00001.456418,00000.666779,-00001.807304,-00000.211078,-00000.403098,00000.304678,-00000.061752,-00000.046764
0000000001540,00001.113078,00000.919478,00001.186071,00000.687275,00002.063585,00001.827364,00002.202834,00002.280729,00001.456687,00000.667633,-00001.806432,-00000.210248,-00000.403319,00000.305252,-00000.062270,-00000.047259
0000000001541,00001.112997,00000.919888,00001.188197,00000.687022,00002.063653,00001.827004,00002.202512,00002.281159,00001.456302,00000.669575,-00001.805557,-00000.208733,-00000.402844,00000.305936,-00000.063894,-00000.047488
0000000001542,00001.112565,00000.920236,00001.189280,00000.686807,00002.063711,00001.826335,00002.202963,00002.280799,00001.455975,00000.670866,-00001.806625,-00000.208532,-00000.402439,00000.307243,-00000.064914,-00000.048045
0000000001543,00001.112197,00000.920533,00001.190566,00000.686623,00002.064123,00001.826128,00002.202984,00002.280856,00001.456059,00000.673416,-00001.806810,-00000.208724,-00000.401369,00000.307631,-00000.066145,-00000.049245
0000000001544,00001.112190,00000.920648,00001.190925,00000.687036,00002.064180,00001.826019,00002.203193,00002.280661,00001.456267,00000.674157,-00001.807069,-00000.208434,-00000.400874,00000.307605,-00000.066697,-00000.049658
0000000001545,00001.112241,00000.920521,00001.191966,00000.686819,00002.063796,00001.826222,00002.202818,00002.281101,00001.456670,00000.675492,-00001.807188,-00000.208277,-00000.400037,00000.308302,-00000.066212,-00000.050255
0000000001546,00001.112290,00000.920691,00001.192645,00000.686952,00002.064154,00001.826528,00002.203018,00002.281308,00001.456863,00000.676091,-00001.806321,-00000.208408,-00000.399682,00000.308242,-00000.066379,-00000.050464
0000000001547,00001.112326,00000.920920,00001.193793,00000.687110,00002.064500,00001.826655,00002.203394,00002.282014,00001.457903,00000.677138,-00001.803648,-00000.208980,-00000.397933,00000.309207,-00000.066667,-00000.051305
0000000001548,00001.112719,00000.921478,00001.194407,00000.689058,00002.065157,00001.827852,00002.204440,00002.282616,00001.459514,00000.679118,-00001.800285,-00000.213459,-00000.396082,00000.310391,-00000.066186,-00000.052383
0000000001549,00001.113417,00000.921590,00001.194930,00000.691805,00002.066080,00001.829959,00002.204605,00002.283853,00001.461249,00000.681167,-00001.796333,-00000.218722,-00000.394506,00000.311761,-00000.065051,-00000.052938
0000000001550,00001.113723,00000.921642,00001.195328,00000.693015,00002.066684,00001.831035,00002.204322,00002.284536,00001.461820,00000.681707,-00001.794343,-00000.220662,-00000.393798,00000.312929,-00000.064206,-00000.053385
0000000001551,00001.113908,00000.922455,00001.196077,00000.695174,00002.068105,00001.833032,00002.204505,00002.285125,00001.463937,00000.682282,-00001.792363,-00000.224491,-00000.392199,00000.317188,-00000.063003,-00000.055242
0000000001552,00001.114154,00000.922438,00001.196426,00000.696135,00002.068514,00001.833951,00002.204555,00002.285441,00001.464708,00000.682689,-00001.793007,-00000.226400,-00000.390934,00000.319820,-00000.062645,-00000.056244
0000000001553,00001.113913,00000.922407,00001.196286,00000.697466,00002.068937,00001.834426,00002.204340,00002.285533,00001.465670,00000.683118,-00001.795216,-00000.230102,-00000.389035,00000.321602,-00000.063488,-00000.058401
0000000001554,00001.113345,00000.922381,00001.196167,00000.697512,00002.070386,00001.834467,00002.204519,00002.285974,00001.466489,00000.683846,-00001.795646,-00000.233616,-00000.389232,00000.322031,-00000.066019,-00000.060601
0000000001555,00001.112919,00000.922369,00001.196113,00000.697167,00002.071058,00001.834507,00002.204595,00002.286154,00001.466665,00000.684215,-00001.795970,-00000.235530,-00000.389300,00000.323176,-00000.065847,-00000.061592
0000000001556,00001.111410,00000.922349,00001.195294,00000.695443,00002.071465,00001.834536,00002.204374,00002.286140,00001.466610,00000.684417,-00001.799190,-00000.238963,-00000.389458,00000.323371,-00000.067302,-00000.061866
0000000001557,00001.110744,00000.922340,00001.194945,00000.694534,00002.071997,00001.834169,00002.204439,00002.286360,00001.466020,00000.684321,-00001.800044,-00000.240498,-00000.389180,00000.322909,-00000.068465,-00000.061998
0000000001558,00001.108107,00000.921235,00001.193574,00000.691751,00002.071540,00001.833886,00002.203879,00002.285953,00001.464973,00000.683419,-00001.800119,-00000.242104,-00000.388631,00000.322781,-00000.069894,-00000.063663
0000000001559,00001.103686,00000.918844,00001.191681,00000.688656,00002.070425,00001.831830,00002.201950,00002.284880,00001.464081,00000.681926,-00001.798369,-00000.242382,-00000.388162,00000.323398,-00000.070384,-00000.064717
0000000001560,00001.101377,00000.917231,00001.191220,00000.684876,00002.070345,00001.830925,00002.200731,00002.284403,00001.463687,00000.681285,-00001.796669,-00000.242507,-00000.388298,00000.323636,-00000.071019,-00000.064591
0000000001561,00001.097232,00000.914347,00001.189677,00000.679901,00002.069407,00001.828947,00002.197820,00002.283561,00001.462987,00000.680109,-00001.789627,-00000.243814,-00000.388242,00000.323400,-00000.070979,-00000.064419
0000000001562,00001.093339,00000.912254,00001.188364,00000.677479,00002.069335,00001.827626,00002.196429,00002.282481,00001.462391,00000.679470,-00001.779641,-00000.244926,-00000.388558,00000.323199,-00000.070946,-00000.065723
0000000001563,00001.091759,00000.911521,00001.187794,00000.676435,00002.069277,00001.827377,00002.195951,00002.282165,00001.462127,00000.679376,-00001.774485,-00000.245217,-00000.389113,00000.322781,-00000.071105,-00000.065978
0000000001564,00001.089043,00000.909486,00001.187486,00000.674529,00002.068498,00001.827015,00002.194113,00002.281656,00001.461296,00000.679209,-00001.764574,-00000.245758,-00000.390024,00000.322309,-00000.070327,-00000.065962
0000000001565,00001.087877,00000.908956,00001.187329,00000.673663,00002.068549,00001.826888,00002.193566,00002.281451,00001.461143,00000.679135,-00001.759766,-00000.246371,-00000.390398,00000.321902,-00000.069804,-00000.065711
0000000001566,00001.086101,00000.908753,00001.187453,00000.672532,00002.068241,00001.827324,00002.192445,00002.281411,00001.460096,00000.679730,-00001.750593,-00000.247466,-00000.390392,00000.320110,-00000.068857,-00000.064647
0000000001567,00001.084952,00000.909306,00001.187559,00000.672294,00002.068342,00001.827696,00002.191491,00002.281377,00001.459204,00000.680962,-00001.742421,-00000.248036,-00000.390025,00000.318222,-00000.067688,-00000.064466
0000000001568,00001.083975,00000.909414,00001.187649,00000.671729,00002.069154,00001.827649,00002.191042,00002.280985,00001.458445,00000.682010,-00001.737641,-00000.248158,-00000.388624,00000.318791,-00000.067418,-00000.063224
0000000001569,00001.083531,00000.909283,00001.187848,00000.671525,00002.069509,00001.827762,00002.190584,00002.281160,00001.458142,00000.682455,-00001.736126,-00000.248202,-00000.388031,00000.318693,-00000.067054,-00000.062515
0000000001570,00001.083505,00000.909506,00001.188089,00000.671611,00002.069845,00001.827973,00002.190659,00002.281014,00001.458162,00000.683266,-00001.733934,-00000.247899,-00000.387794,00000.318550,-00000.066463,-00000.061442
0000000001571,00001.083127,00000.910120,00001.187895,00000.671800,00002.070510,00001.828069,00002.190632,00002.280800,00001.458267,00000.684733,-00001.730831,-00000.247574,-00000.388015,00000.317378,-00000.065428,-00000.060838
0000000001572,00001.083105,00000.910310,00001.188100,00000.671511,00002.070796,00001.828248,00002.190333,00002.281038,00001.458283,00000.686149,-00001.727514,-00000.247678,-00000.388176,00000.315442,-00000.064198,-00000.060287
0000000001573,00001.083146,00000.910469,00001.188298,00000.671309,00002.071362,00001.828329,00002.190310,00002.281219,00001.458373,00000.687760,-00001.724509,-00000.247765,-00000.388001,00000.312994,-00000.062592,-00000.059047
0000000001574,00001.083127,00000.910994,00001.188473,00000.671425,00002.071968,00001.828482,00002.190419,00002.281059,00001.458749,00000.688965,-00001.721685,-00000.247853,-00000.387413,00000.310983,-00000.060820,-00000.057852
0000000001575,00001.083162,00000.911493,00001.188641,00000.671616,00002.072087,00001.828552,00002.190399,00002.280851,00001.458826,00000.690337,-00001.719490,-00000.247927,-00000.387264,00000.309261,-00000.059815,-00000.056797
0000000001576,00001.083146,00000.911939,00001.189153,00000.671715,00002.072603,00001.828682,00002.190492,00002.280714,00001.458784,00000.691726,-00001.717449,-00000.247640,-00000.387126,00000.307912,-00000.059032,-00000.055780
0000000001577,00001.083539,00000.912364,00001.189659,00000.672240,00002.072705,00001.829103,00002.190112,00002.280900,00001.458848,00000.693257,-00001.715580,-00000.246614,-00000.387362,00000.306446,-00000.057813,-00000.055244
0000000001578,00001.084614,00000.912744,00001.190094,00000.673050,00002.073144,00001.829577,00002.190191,00002.281509,00001.459175,00000.696253,-00001.712754,-00000.245281,-00000.387970,00000.304209,-00000.056784,-00000.055104
0000000001579,00001.086036,00000.913468,00001.190888,00000.674586,00002.073956,00001.830299,00002.190593,00002.281667,00001.460319,00000.699733,-00001.708624,-00000.244045,-00000.388534,00000.301511,-00000.055747,-00000.055374
0000000001580,00001.087314,00000.914518,00001.191621,00000.676001,00002.074330,00001.830702,00002.190660,00002.281460,00001.461686,00000.703009,-00001.703678,-00000.242910,-00000.388688,00000.298155,-00000.055233,-00000.055617
0000000001581,00001.088525,00000.915497,00001.192297,00000.677671,00002.074658,00001.830954,00002.191003,00002.281594,00001.463022,00000.706335,-00001.699074,-00000.241858,-00000.388805,00000.295495,-00000.054350,-00000.055484
0000000001582,00001.089613,00000.916027,00001.192921,00000.678876,00002.074977,00001.831297,00002.191060,00002.281781,00001.463097,00000.709487,-00001.695227,-00000.240892,-00000.388937,00000.293001,-00000.052825,-00000.054966
0000000001583,00001.090644,00000.916498,00001.193496,00000.679572,00002.075256,00001.831148,00002.190989,00002.281896,00001.462784,00000.712317,-00001.691307,-00000.239996,-00000.389037,00000.290374,-00000.051710,-00000.054127
0000000001584,00001.091570,00000.916950,00001.194028,00000.680234,00002.075527,00001.831078,00002.191038,00002.282055,00001.462485,00000.715726,-00001.686943,-00000.239537,-00000.389512,00000.287162,-00000.051137,-00000.053322
0000000001585,00001.092448,00000.917351,00001.194518,00000.680827,00002.075765,00001.830589,00002.190977,00002.282152,00001.462218,00000.718862,-00001.682518,-00000.239137,-00000.389597,00000.284563,-00000.050914,-00000.052608
0000000001586,00001.093599,00000.917735,00001.194970,00000.681391,00002.075633,00001.830528,00002.190656,00002.282287,00001.461964,00000.722126,-00001.678803,-00000.239108,-00000.389276,00000.282917,-00000.051152,-00000.052649
0000000001587,00001.094346,00000.918076,00001.195387,00000.681896,00002.075836,00001.830475,00002.190604,00002.282370,00001.461736,00000.725158,-00001.675399,-00000.239131,-00000.388985,00000.281793,-00000.051324,-00000.053130
