0000000002559,00001.982422,00001.191406,00001.533203,00001.879883,00002.373047,00002.133789,00002.294922,00002.709961,00001.914063,00001.337891,-00000.424805,-00000.063477,-00000.561523,-00000.034180,-00000.068359,-00000.161133
0000000002560,00001.982422,00001.191406,00001.533203,00001.879883,00002.382813,00002.133789,00002.299805,00002.709961,00001.918945,00001.342773,-00000.419922,-00000.063477,-00000.561523,-00000.034180,-00000.063477,-00000.166016
0000000002561,00001.987305,00001.191406,00001.538086,00001.884766,00002.377930,00002.133789,00002.299805,00002.714844,00001.918945,00001.342773,-00000.419922,-00000.063477,-00000.561523,-00000.039063,-00000.068359,-00000.166016
0000000002562,00001.987305,00001.191406,00001.533203,00001.884766,00002.377930,00002.138672,00002.299805,00002.709961,00001.918945,00001.337891,-00000.424805,-00000.063477,-00000.561523,-00000.039063,-00000.068359,-00000.166016
0000000002563,00001.997070,00001.191406,00001.533203,00001.884766,00002.377930,00002.133789,00002.299805,00002.714844,00001.918945,00001.342773,-00000.429688,-00000.063477,-00000.561523,-00000.034180,-00000.068359,-00000.161133
0000000002564,00001.997070,00001.191406,00001.538086,00001.884766,00002.377930,00002.138672,00002.299805,00002.714844,00001.918945,00001.342773,-00000.429688,-00000.063477,-00000.561523,-00000.034180,-00000.073242,-00000.161133
0000000002565,00001.997070,00001.191406,00001.538086,00001.884766,00002.382813,00002.133789,00002.299805,00002.709961,00001.918945,00001.337891,-00000.424805,-00000.063477,-00000.561523,-00000.034180,-00000.073242,-00000.161133
0000000002566,00001.992188,00001.191406,00001.533203,00001.884766,00002.377930,00002.133789,00002.299805,00002.705078,00001.918945,00001.337891,-00000.424805,-00000.063477,-00000.561523,-00000.034180,-00000.068359,-00000.156250
0000000002567,00002.001953,00001.191406,00001.538086,00001.884766,00002.377930,00002.138672,00002.299805,00002.714844,00001.918945,00001.337891,-00000.424805,-00000.063477,-00000.561523,-00000.034180,-00000.068359,-00000.161133
0000000002568,00002.001953,00001.191406,00001.538086,00001.884766,00002.377930,00002.138672,00002.299805,00002.714844,00001.918945,00001.337891,-00000.429688,-00000.063477,-00000.561523,-00000.034180,-00000.068359,-00000.161133
0000000002569,00001.997070,00001.191406,00001.533203,00001.879883,00002.377930,00002.133789,00002.299805,00002.709961,00001.918945,00001.337891,-00000.434570,-00000.058594,-00000.561523,-00000.034180,-00000.073242,-00000.156250
0000000002570,00001.997070,00001.191406,00001.533203,00001.879883,00002.377930,00002.138672,00002.299805,00002.709961,00001.918945,00001.337891,-00000.434570,-00000.063477,-00000.561523,-00000.034180,-00000.073242,-00000.151367
0000000002571,00001.997070,00001.196289,00001.538086,00001.879883,00002.382813,00002.138672,00002.299805,00002.714844,00001.918945,00001.337891,-00000.439453,-00000.063477,-00000.561523,-00000.034180,-00000.073242,-00000.151367
0000000002572,00001.987305,00001.196289,00001.533203,00001.884766,00002.377930,00002.138672,00002.304688,00002.709961,00001.923828,00001.337891,-00000.434570,-00000.063477,-00000.561523,-00000.029297,-00000.073242,-00000.151367
0000000002573,00001.997070,00001.201172,00001.538086,00001.899414,00002.382813,00002.133789,00002.299805,00002.709961,00001.923828,00001.337891,-00000.434570,-00000.063477,-00000.561523,-00000.029297,-00000.068359,-00000.151367
0000000002574,00002.001953,00001.196289,00001.538086,00001.899414,00002.377930,00002.138672,00002.299805,00002.714844,00001.918945,00001.342773,-00000.434570,-00000.063477,-00000.561523,-00000.029297,-00000.068359,-00000.151367
0000000002575,00002.001953,00001.196289,00001.533203,00001.894531,00002.382813,00002.133789,00002.304688,00002.709961,00001.923828,00001.342773,-00000.444336,-00000.063477,-00000.561523,-00000.029297,-00000.073242,-00000.146484
0000000002576,00001.997070,00001.201172,00001.533203,00001.889648,00002.382813,00002.133789,00002.304688,00002.705078,00001.923828,00001.337891,-00000.449219,-00000.063477,-00000.561523,-00000.034180,-00000.073242,-00000.146484
0000000002577,00001.997070,00001.201172,00001.533203,00001.894531,00002.382813,00002.133789,00002.304688,00002.709961,00001.923828,00001.342773,-00000.449219,-00000.063477,-00000.561523,-00000.034180,-00000.078125,-00000.146484
0000000002578,00001.997070,00001.201172,00001.533203,00001.899414,00002.377930,00002.138672,00002.299805,00002.714844,00001.923828,00001.342773,-00000.454102,-00000.058594,-00000.566406,-00000.034180,-00000.078125,-00000.141602
0000000002579,00001.997070,00001.206055,00001.533203,00001.904297,00002.382813,00002.133789,00002.304688,00002.714844,00001.923828,00001.337891,-00000.449219,-00000.063477,-00000.561523,-00000.034180,-00000.078125,-00000.141602
0000000002580,00002.001953,00001.206055,00001.533203,00001.904297,00002.377930,00002.138672,00002.299805,00002.714844,00001.923828,00001.342773,-00000.449219,-00000.063477,-00000.561523,-00000.034180,-00000.078125,-00000.141602
0000000002581,00001.997070,00001.210938,00001.528320,00001.904297,00002.382813,00002.133789,00002.304688,00002.714844,00001.923828,00001.337891,-00000.449219,-00000.058594,-00000.561523,-00000.034180,-00000.078125,-00000.141602
0000000002582,00001.997070,00001.210938,00001.523438,00001.904297,00002.382813,00002.133789,00002.304688,00002.714844,00001.928711,00001.337891,-00000.454102,-00000.063477,-00000.561523,-00000.029297,-00000.078125,-00000.141602
0000000002583,00002.001953,00001.210938,00001.523438,00001.914063,00002.382813,00002.138672,00002.299805,00002.719727,00001.933594,00001.342773,-00000.454102,-00000.063477,-00000.561523,-00000.034180,-00000.078125,-00000.141602
0000000002584,00002.001953,00001.215820,00001.518555,00001.918945,00002.382813,00002.138672,00002.304688,00002.714844,00001.938477,00001.342773,-00000.458984,-00000.063477,-00000.561523,-00000.034180,-00000.078125,-00000.141602
0000000002585,00001.997070,00001.215820,00001.513672,00001.923828,00002.382813,00002.138672,00002.314453,00002.714844,00001.943359,00001.342773,-00000.458984,-00000.063477,-00000.561523,-00000.034180,-00000.078125,-00000.141602
0000000002586,00002.001953,00001.215820,00001.518555,00001.918945,00002.377930,00002.138672,00002.309570,00002.719727,00001.933594,00001.342773,-00000.454102,-00000.063477,-00000.556641,-00000.029297,-00000.073242,-00000.141602
0000000002587,00002.001953,00001.215820,00001.513672,00001.918945,00002.382813,00002.133789,00002.309570,00002.714844,00001.938477,00001.342773,-00000.454102,-00000.063477,-00000.556641,-00000.024414,-00000.073242,-00000.141602
0000000002588,00001.997070,00001.220703,00001.513672,00001.928711,00002.382813,00002.133789,00002.314453,00002.714844,00001.943359,00001.342773,-00000.454102,-00000.063477,-00000.556641,-00000.024414,-00000.068359,-00000.141602
0000000002589,00002.001953,00001.220703,00001.513672,00001.943359,00002.382813,00002.143555,00002.314453,00002.719727,00001.948242,00001.357422,-00000.449219,-00000.063477,-00000.556641,-00000.024414,-00000.063477,-00000.136719
0000000002590,00002.001953,00001.220703,00001.518555,00001.938477,00002.382813,00002.138672,00002.309570,00002.724609,00001.948242,00001.362305,-00000.449219,-00000.063477,-00000.556641,-00000.024414,-00000.063477,-00000.131836
0000000002591,00002.001953,00001.220703,00001.518555,00001.943359,00002.382813,00002.138672,00002.314453,00002.719727,00001.948242,00001.357422,-00000.449219,-00000.063477,-00000.556641,-00000.024414,-00000.063477,-00000.136719
0000000002592,00002.001953,00001.225586,00001.518555,00001.938477,00002.387695,00002.138672,00002.319336,00002.719727,00001.948242,00001.352539,-00000.449219,-00000.063477,-00000.556641,-00000.019531,-00000.063477,-00000.136719
0000000002593,00002.001953,00001.220703,00001.513672,00001.943359,00002.382813,00002.138672,00002.314453,00002.719727,00001.948242,00001.342773,-00000.454102,-00000.063477,-00000.556641,-00000.019531,-00000.063477,-00000.136719
0000000002594,00002.001953,00001.215820,00001.518555,00001.933594,00002.387695,00002.138672,00002.309570,00002.724609,00001.943359,00001.357422,-00000.454102,-00000.063477,-00000.556641,-00000.024414,-00000.063477,-00000.136719
0000000002595,00002.001953,00001.215820,00001.513672,00001.933594,00002.382813,00002.138672,00002.314453,00002.714844,00001.943359,00001.342773,-00000.454102,-00000.063477,-00000.556641,-00000.019531,-00000.063477,-00000.136719
0000000002596,00001.997070,00001.215820,00001.508789,00001.909180,00002.382813,00002.133789,00002.309570,00002.714844,00001.933594,00001.337891,-00000.444336,-00000.063477,-00000.556641,-00000.019531,-00000.063477,-00000.136719
0000000002597,00001.982422,00001.210938,00001.508789,00001.889648,00002.377930,00002.138672,00002.299805,00002.714844,00001.923828,00001.347656,-00000.439453,-00000.063477,-00000.556641,-00000.019531,-00000.058594,-00000.136719
0000000002598,00001.977539,00001.210938,00001.508789,00001.879883,00002.377930,00002.138672,00002.294922,00002.714844,00001.918945,00001.352539,-00000.439453,-00000.063477,-00000.556641,-00000.019531,-00000.058594,-00000.136719
0000000002599,00001.972656,00001.206055,00001.503906,00001.875000,00002.373047,00002.133789,00002.299805,00002.709961,00001.918945,00001.357422,-00000.439453,-00000.058594,-00000.556641,-00000.019531,-00000.058594,-00000.136719
0000000002600,00001.972656,00001.201172,00001.508789,00001.870117,00002.373047,00002.133789,00002.294922,00002.709961,00001.918945,00001.352539,-00000.439453,-00000.058594,-00000.556641,-00000.019531,-00000.063477,-00000.136719
0000000002601,00001.967773,00001.206055,00001.508789,00001.870117,00002.377930,00002.128906,00002.304688,00002.709961,00001.918945,00001.352539,-00000.439453,-00000.063477,-00000.556641,-00000.014648,-00000.068359,-00000.131836
0000000002602,00001.972656,00001.201172,00001.508789,00001.870117,00002.373047,00002.128906,00002.294922,00002.709961,00001.914063,00001.352539,-00000.439453,-00000.058594,-00000.556641,-00000.019531,-00000.068359,-00000.131836
0000000002603,00001.972656,00001.206055,00001.508789,00001.870117,00002.377930,00002.128906,00002.299805,00002.705078,00001.918945,00001.347656,-00000.439453,-00000.063477,-00000.556641,-00000.024414,-00000.073242,-00000.131836
0000000002604,00001.972656,00001.206055,00001.508789,00001.875000,00002.377930,00002.133789,00002.304688,00002.709961,00001.923828,00001.347656,-00000.434570,-00000.063477,-00000.556641,-00000.024414,-00000.068359,-00000.131836
0000000002605,00001.977539,00001.201172,00001.508789,00001.879883,00002.377930,00002.133789,00002.299805,00002.705078,00001.918945,00001.342773,-00000.429688,-00000.063477,-00000.556641,-00000.024414,-00000.063477,-00000.131836
0000000002606,00001.977539,00001.206055,00001.508789,00001.879883,00002.377930,00002.133789,00002.299805,00002.705078,00001.923828,00001.342773,-00000.429688,-00000.063477,-00000.556641,-00000.024414,-00000.068359,-00000.131836
0000000002607,00001.982422,00001.201172,00001.513672,00001.879883,00002.373047,00002.138672,00002.299805,00002.709961,00001.918945,00001.342773,-00000.434570,-00000.063477,-00000.556641,-00000.029297,-00000.073242,-00000.126953
0000000002608,00001.982422,00001.206055,00001.508789,00001.879883,00002.377930,00002.128906,00002.304688,00002.709961,00001.923828,00001.337891,-00000.434570,-00000.063477,-00000.561523,-00000.029297,-00000.073242,-00000.126953
0000000002609,00001.982422,00001.210938,00001.508789,00001.879883,00002.377930,00002.133789,00002.299805,00002.709961,00001.923828,00001.337891,-00000.434570,-00000.063477,-00000.561523,-00000.029297,-00000.073242,-00000.126953
0000000002610,00001.987305,00001.206055,00001.513672,00001.879883,00002.377930,00002.138672,00002.294922,00002.714844,00001.918945,00001.342773,-00000.434570,-00000.063477,-00000.561523,-00000.024414,-00000.068359,-00000.126953
0000000002611,00001.997070,00001.210938,00001.513672,00001.879883,00002.377930,00002.133789,00002.299805,00002.709961,00001.923828,00001.337891,-00000.434570,-00000.063477,-00000.561523,-00000.024414,-00000.073242,-00000.126953
0000000002612,00001.997070,00001.206055,00001.518555,00001.879883,00002.377930,00002.133789,00002.299805,00002.709961,00001.923828,00001.337891,-00000.434570,-00000.063477,-00000.561523,-00000.024414,-00000.073242,-00000.126953
0000000002613,00001.997070,00001.206055,00001.518555,00001.879883,00002.377930,00002.133789,00002.299805,00002.714844,00001.923828,00001.342773,-00000.434570,-00000.063477,-00000.566406,-00000.024414,-00000.073242,-00000.126953
0000000002614,00001.997070,00001.206055,00001.513672,00001.894531,00002.373047,00002.138672,00002.299805,00002.709961,00001.923828,00001.337891,-00000.434570,-00000.063477,-00000.561523,-00000.024414,-00000.073242,-00000.126953
0000000002615,00001.997070,00001.206055,00001.518555,00001.894531,00002.377930,00002.133789,00002.299805,00002.714844,00001.923828,00001.342773,-00000.429688,-00000.063477,-00000.556641,-00000.024414,-00000.068359,-00000.131836
0000000002616,00001.992188,00001.206055,00001.513672,00001.904297,00002.377930,00002.133789,00002.304688,00002.709961,00001.923828,00001.337891,-00000.429688,-00000.063477,-00000.561523,-00000.029297,-00000.068359,-00000.131836
0000000002617,00001.997070,00001.206055,00001.518555,00001.909180,00002.377930,00002.138672,00002.299805,00002.709961,00001.923828,00001.337891,-00000.424805,-00000.063477,-00000.556641,-00000.029297,-00000.068359,-00000.131836
0000000002618,00001.997070,00001.210938,00001.518555,00001.914063,00002.382813,00002.133789,00002.304688,00002.709961,00001.928711,00001.337891,-00000.424805,-00000.063477,-00000.561523,-00000.034180,-00000.068359,-00000.131836
0000000002619,00001.997070,00001.210938,00001.518555,00001.914063,00002.377930,00002.133789,00002.304688,00002.709961,00001.923828,00001.337891,-00000.424805,-00000.063477,-00000.561523,-00000.034180,-00000.073242,-00000.126953
0000000002620,00001.997070,00001.206055,00001.518555,00001.909180,00002.382813,00002.133789,00002.299805,00002.714844,00001.923828,00001.337891,-00000.429688,-00000.063477,-00000.561523,-00000.029297,-00000.073242,-00000.122070
0000000002621,00002.001953,00001.206055,00001.523438,00001.909180,00002.382813,00002.133789,00002.299805,00002.714844,00001.923828,00001.342773,-00000.429688,-00000.063477,-00000.561523,-00000.029297,-00000.073242,-00000.122070
0000000002622,00001.997070,00001.210938,00001.523438,00001.909180,00002.382813,00002.133789,00002.304688,00002.714844,00001.923828,00001.337891,-00000.429688,-00000.063477,-00000.561523,-00000.029297,-00000.073242,-00000.126953
0000000002623,00002.001953,00001.206055,00001.518555,00001.914063,00002.377930,00002.138672,00002.299805,00002.714844,00001.928711,00001.337891,-00000.424805,-00000.058594,-00000.561523,-00000.029297,-00000.073242,-00000.126953
0000000002624,00001.997070,00001.206055,00001.523438,00001.914063,00002.377930,00002.133789,00002.299805,00002.709961,00001.923828,00001.337891,-00000.424805,-00000.063477,-00000.561523,-00000.029297,-00000.073242,-00000.131836
0000000002625,00002.001953,00001.206055,00001.518555,00001.918945,00002.377930,00002.138672,00002.299805,00002.714844,00001.933594,00001.337891,-00000.419922,-00000.063477,-00000.561523,-00000.034180,-00000.078125,-00000.131836
0000000002626,00002.001953,00001.206055,00001.518555,00001.928711,00002.377930,00002.138672,00002.299805,00002.714844,00001.933594,00001.337891,-00000.419922,-00000.063477,-00000.566406,-00000.034180,-00000.078125,-00000.136719
0000000002627,00002.001953,00001.206055,00001.523438,00001.928711,00002.382813,00002.133789,00002.299805,00002.714844,00001.933594,00001.337891,-00000.419922,-00000.063477,-00000.561523,-00000.034180,-00000.083008,-00000.131836
0000000002628,00001.997070,00001.210938,00001.518555,00001.933594,00002.382813,00002.138672,00002.304688,00002.714844,00001.938477,00001.337891,-00000.419922,-00000.063477,-00000.566406,-00000.034180,-00000.083008,-00000.131836
0000000002629,00001.997070,00001.210938,00001.518555,00001.933594,00002.377930,00002.138672,00002.299805,00002.714844,00001.933594,00001.337891,-00000.419922,-00000.063477,-00000.566406,-00000.034180,-00000.083008,-00000.131836
0000000002630,00002.001953,00001.210938,00001.518555,00001.933594,00002.382813,00002.133789,00002.304688,00002.714844,00001.938477,00001.337891,-00000.424805,-00000.063477,-00000.566406,-00000.029297,-00000.083008,-00000.136719
0000000002631,00002.001953,00001.206055,00001.523438,00001.933594,00002.382813,00002.138672,00002.304688,00002.719727,00001.933594,00001.337891,-00000.424805,-00000.063477,-00000.566406,-00000.024414,-00000.083008,-00000.136719
0000000002632,00002.001953,00001.210938,00001.518555,00001.933594,00002.382813,00002.138672,00002.304688,00002.714844,00001.938477,00001.337891,-00000.424805,-00000.063477,-00000.566406,-00000.024414,-00000.087891,-00000.136719
0000000002633,00002.001953,00001.206055,00001.523438,00001.928711,00002.382813,00002.138672,00002.299805,00002.719727,00001.938477,00001.337891,-00000.424805,-00000.063477,-00000.566406,-00000.024414,-00000.087891,-00000.141602
0000000002634,00002.001953,00001.210938,00001.523438,00001.938477,00002.387695,00002.138672,00002.299805,00002.719727,00001.938477,00001.342773,-00000.424805,-00000.063477,-00000.566406,-00000.024414,-00000.087891,-00000.141602
0000000002635,00001.997070,00001.215820,00001.523438,00001.943359,00002.387695,00002.138672,00002.304688,00002.714844,00001.943359,00001.337891,-00000.424805,-00000.063477,-00000.566406,-00000.024414,-00000.083008,-00000.141602
0000000002636,00002.001953,00001.210938,00001.523438,00001.948242,00002.382813,00002.138672,00002.299805,00002.719727,00001.938477,00001.337891,-00000.419922,-00000.063477,-00000.571289,-00000.024414,-00000.083008,-00000.141602
0000000002637,00002.001953,00001.215820,00001.523438,00001.958008,00002.387695,00002.138672,00002.309570,00002.714844,00001.948242,00001.337891,-00000.419922,-00000.063477,-00000.566406,-00000.024414,-00000.078125,-00000.146484
0000000002638,00002.001953,00001.215820,00001.528320,00001.953125,00002.387695,00002.138672,00002.309570,00002.719727,00001.943359,00001.337891,-00000.419922,-00000.063477,-00000.566406,-00000.019531,-00000.078125,-00000.146484
0000000002639,00002.001953,00001.210938,00001.528320,00001.943359,00002.382813,00002.138672,00002.304688,00002.719727,00001.938477,00001.337891,-00000.419922,-00000.063477,-00000.566406,-00000.019531,-00000.078125,-00000.151367
0000000002640,00001.997070,00001.210938,00001.523438,00001.938477,00002.382813,00002.133789,00002.304688,00002.714844,00001.943359,00001.337891,-00000.419922,-00000.068359,-00000.566406,-00000.019531,-00000.073242,-00000.151367
0000000002641,00001.997070,00001.210938,00001.523438,00001.918945,00002.382813,00002.133789,00002.304688,00002.714844,00001.933594,00001.337891,-00000.419922,-00000.063477,-00000.566406,-00000.019531,-00000.073242,-00000.151367
0000000002642,00001.997070,00001.206055,00001.518555,00001.899414,00002.377930,00002.133789,00002.304688,00002.709961,00001.928711,00001.342773,-00000.419922,-00000.063477,-00000.566406,-00000.019531,-00000.078125,-00000.151367
0000000002643,00001.987305,00001.201172,00001.518555,00001.884766,00002.377930,00002.133789,00002.299805,00002.709961,00001.923828,00001.352539,-00000.419922,-00000.063477,-00000.566406,-00000.019531,-00000.073242,-00000.151367
0000000002644,00001.982422,00001.201172,00001.518555,00001.875000,00002.377930,00002.133789,00002.299805,00002.705078,00001.918945,00001.357422,-00000.419922,-00000.063477,-00000.566406,-00000.019531,-00000.073242,-00000.151367
0000000002645,00001.982422,00001.196289,00001.518555,00001.875000,00002.377930,00002.133789,00002.294922,00002.709961,00001.918945,00001.357422,-00000.415039,-00000.068359,-00000.566406,-00000.019531,-00000.068359,-00000.151367
0000000002646,00001.972656,00001.196289,00001.513672,00001.875000,00002.377930,00002.133789,00002.299805,00002.705078,00001.918945,00001.352539,-00000.415039,-00000.068359,-00000.566406,-00000.024414,-00000.068359,-00000.156250
0000000002647,00001.977539,00001.191406,00001.513672,00001.875000,00002.377930,00002.133789,00002.294922,00002.709961,00001.914063,00001.352539,-00000.415039,-00000.068359,-00000.566406,-00000.024414,-00000.068359,-00000.156250
0000000002648,00001.982422,00001.196289,00001.513672,00001.879883,00002.377930,00002.133789,00002.299805,00002.705078,00001.918945,00001.347656,-00000.415039,-00000.068359,-00000.566406,-00000.024414,-00000.068359,-00000.156250
0000000002649,00001.982422,00001.196289,00001.508789,00001.879883,00002.373047,00002.133789,00002.299805,00002.705078,00001.918945,00001.347656,-00000.419922,-00000.063477,-00000.566406,-00000.019531,-00000.073242,-00000.151367
0000000002650,00001.977539,00001.196289,00001.513672,00001.875000,00002.377930,00002.133789,00002.299805,00002.705078,00001.918945,00001.347656,-00000.424805,-00000.063477,-00000.561523,-00000.019531,-00000.073242,-00000.156250
0000000002651,00001.982422,00001.196289,00001.518555,00001.875000,00002.377930,00002.138672,00002.299805,00002.709961,00001.918945,00001.347656,-00000.424805,-00000.063477,-00000.561523,-00000.019531,-00000.068359,-00000.156250
0000000002652,00001.977539,00001.196289,00001.513672,00001.875000,00002.377930,00002.133789,00002.299805,00002.705078,00001.918945,00001.347656,-00000.424805,-00000.063477,-00000.561523,-00000.019531,-00000.068359,-00000.156250
0000000002653,00001.977539,00001.196289,00001.513672,00001.875000,00002.377930,00002.128906,00002.299805,00002.700195,00001.918945,00001.342773,-00000.424805,-00000.063477,-00000.561523,-00000.019531,-00000.068359,-00000.151367
0000000002654,00001.982422,00001.191406,00001.518555,00001.875000,00002.377930,00002.133789,00002.299805,00002.709961,00001.914063,00001.347656,-00000.424805,-00000.063477,-00000.561523,-00000.014648,-00000.073242,-00000.151367
0000000002655,00002.001953,00001.196289,00001.518555,00001.875000,00002.382813,00002.133789,00002.299805,00002.709961,00001.918945,00001.337891,-00000.424805,-00000.063477,-00000.561523,-00000.019531,-00000.073242,-00000.156250
0000000002656,00001.997070,00001.201172,00001.518555,00001.879883,00002.382813,00002.133789,00002.299805,00002.709961,00001.918945,00001.337891,-00000.415039,-00000.068359,-00000.561523,-00000.019531,-00000.068359,-00000.161133
0000000002657,00001.997070,00001.201172,00001.513672,00001.894531,00002.377930,00002.133789,00002.299805,00002.705078,00001.918945,00001.337891,-00000.410156,-00000.068359,-00000.566406,-00000.019531,-00000.068359,-00000.166016
0000000002658,00001.997070,00001.201172,00001.513672,00001.899414,00002.377930,00002.138672,00002.299805,00002.709961,00001.918945,00001.337891,-00000.415039,-00000.068359,-00000.566406,-00000.019531,-00000.068359,-00000.166016
0000000002659,00001.997070,00001.201172,00001.513672,00001.894531,00002.377930,00002.133789,00002.299805,00002.705078,00001.918945,00001.337891,-00000.419922,-00000.068359,-00000.566406,-00000.014648,-00000.068359,-00000.166016
0000000002660,00001.997070,00001.201172,00001.513672,00001.879883,00002.382813,00002.133789,00002.299805,00002.709961,00001.918945,00001.337891,-00000.419922,-00000.063477,-00000.566406,-00000.014648,-00000.068359,-00000.166016
0000000002661,00001.997070,00001.196289,00001.513672,00001.884766,00002.377930,00002.133789,00002.299805,00002.705078,00001.918945,00001.337891,-00000.424805,-00000.068359,-00000.566406,-00000.014648,-00000.073242,-00000.161133
0000000002662,00002.001953,00001.196289,00001.513672,00001.879883,00002.377930,00002.133789,00002.299805,00002.709961,00001.918945,00001.337891,-00000.424805,-00000.068359,-00000.566406,-00000.014648,-00000.073242,-00000.166016
0000000002663,00001.997070,00001.201172,00001.513672,00001.879883,00002.382813,00002.133789,00002.304688,00002.705078,00001.923828,00001.337891,-00000.424805,-00000.063477,-00000.566406,-00000.014648,-00000.068359,-00000.166016
0000000002664,00001.997070,00001.196289,00001.518555,00001.884766,00002.377930,00002.133789,00002.299805,00002.709961,00001.914063,00001.337891,-00000.419922,-00000.068359,-00000.566406,-00000.014648,-00000.073242,-00000.170898
0000000002665,00001.997070,00001.196289,00001.518555,00001.894531,00002.382813,00002.133789,00002.299805,00002.709961,00001.918945,00001.337891,-00000.415039,-00000.063477,-00000.566406,-00000.014648,-00000.068359,-00000.175781
0000000002666,00002.001953,00001.196289,00001.518555,00001.899414,00002.382813,00002.133789,00002.304688,00002.709961,00001.918945,00001.337891,-00000.419922,-00000.068359,-00000.561523,-00000.014648,-00000.068359,-00000.180664
0000000002667,00001.997070,00001.201172,00001.518555,00001.904297,00002.382813,00002.138672,00002.299805,00002.709961,00001.918945,00001.337891,-00000.419922,-00000.063477,-00000.561523,-00000.014648,-00000.068359,-00000.185547
0000000002668,00002.001953,00001.196289,00001.518555,00001.899414,00002.377930,00002.138672,00002.299805,00002.714844,00001.918945,00001.337891,-00000.424805,-00000.063477,-00000.561523,-00000.014648,-00000.073242,-00000.190430
0000000002669,00001.997070,00001.201172,00001.513672,00001.904297,00002.377930,00002.133789,00002.299805,00002.705078,00001.923828,00001.337891,-00000.424805,-00000.063477,-00000.561523,-00000.009766,-00000.083008,-00000.200195
0000000002670,00001.997070,00001.201172,00001.513672,00001.909180,00002.382813,00002.133789,00002.304688,00002.709961,00001.923828,00001.337891,-00000.424805,-00000.063477,-00000.561523,-00000.004883,-00000.083008,-00000.209961
0000000002671,00002.001953,00001.201172,00001.518555,00001.918945,00002.382813,00002.138672,00002.304688,00002.709961,00001.928711,00001.337891,-00000.424805,-00000.063477,-00000.556641,-00000.004883,-00000.083008,-00000.219727
0000000002672,00002.006836,00001.201172,00001.518555,00001.933594,00002.382813,00002.138672,00002.299805,00002.719727,00001.928711,00001.337891,-00000.419922,-00000.068359,-00000.561523,-00000.004883,-00000.078125,-00000.234375
0000000002673,00002.001953,00001.201172,00001.518555,00001.938477,00002.382813,00002.138672,00002.299805,00002.714844,00001.933594,00001.333008,-00000.415039,-00000.068359,-00000.561523,-00000.009766,-00000.078125,-00000.234375
0000000002674,00002.001953,00001.201172,00001.518555,00001.938477,00002.382813,00002.138672,00002.304688,00002.714844,00001.938477,00001.337891,-00000.419922,-00000.068359,-00000.556641,-00000.009766,-00000.078125,-00000.239258
0000000002675,00002.001953,00001.201172,00001.513672,00001.938477,00002.387695,00002.138672,00002.304688,00002.714844,00001.938477,00001.333008,-00000.424805,-00000.068359,-00000.556641,-00000.004883,-00000.078125,-00000.239258
0000000002676,00002.006836,00001.201172,00001.518555,00001.943359,00002.382813,00002.138672,00002.299805,00002.719727,00001.938477,00001.333008,-00000.424805,-00000.063477,-00000.556641,-00000.004883,-00000.083008,-00000.239258
0000000002677,00002.001953,00001.206055,00001.513672,00001.948242,00002.382813,00002.138672,00002.314453,00002.714844,00001.938477,00001.333008,-00000.419922,-00000.068359,-00000.556641,-00000.004883,-00000.073242,-00000.239258
0000000002678,00002.006836,00001.206055,00001.513672,00001.962891,00002.387695,00002.143555,00002.314453,00002.719727,00001.938477,00001.337891,-00000.419922,-00000.068359,-00000.556641,-00000.004883,-00000.073242,-00000.244141
0000000002679,00002.011719,00001.206055,00001.523438,00001.972656,00002.392578,00002.143555,00002.309570,00002.724609,00001.938477,00001.337891,-00000.415039,-00000.068359,-00000.556641,-00000.009766,-00000.073242,-00000.244141
0000000002680,00002.011719,00001.206055,00001.518555,00001.977539,00002.387695,00002.143555,00002.314453,00002.719727,00001.943359,00001.337891,-00000.415039,-00000.068359,-00000.556641,-00000.009766,-00000.068359,-00000.244141
0000000002681,00002.011719,00001.206055,00001.518555,00001.977539,00002.392578,00002.143555,00002.319336,00002.719727,00001.943359,00001.337891,-00000.419922,-00000.068359,-00000.556641,-00000.009766,-00000.073242,-00000.239258
0000000002682,00002.016602,00001.206055,00001.523438,00001.982422,00002.387695,00002.148438,00002.314453,00002.724609,00001.943359,00001.337891,-00000.424805,-00000.068359,-00000.556641,-00000.004883,-00000.078125,-00000.234375
0000000002683,00002.016602,00001.206055,00001.523438,00001.982422,00002.387695,00002.143555,00002.314453,00002.724609,00001.943359,00001.342773,-00000.424805,-00000.068359,-00000.556641,-00000.004883,-00000.073242,-00000.229492
0000000002684,00002.011719,00001.206055,00001.523438,00001.982422,00002.392578,00002.138672,00002.319336,00002.724609,00001.948242,00001.342773,-00000.424805,-00000.068359,-00000.556641,-00000.004883,-00000.073242,-00000.229492
0000000002685,00002.016602,00001.206055,00001.523438,00001.997070,00002.387695,00002.148438,00002.314453,00002.729492,00001.948242,00001.337891,-00000.419922,-00000.068359,-00000.556641,-00000.004883,-00000.068359,-00000.229492
0000000002686,00002.011719,00001.206055,00001.523438,00001.982422,00002.387695,00002.143555,00002.314453,00002.724609,00001.948242,00001.337891,-00000.419922,-00000.068359,-00000.556641,-00000.004883,-00000.068359,-00000.229492
0000000002687,00002.011719,00001.201172,00001.523438,00001.977539,00002.387695,00002.143555,00002.314453,00002.729492,00001.943359,00001.337891,-00000.415039,-00000.068359,-00000.556641,-00000.009766,-00000.068359,-00000.229492
0000000002688,00002.011719,00001.201172,00001.523438,00001.953125,00002.387695,00002.143555,00002.314453,00002.724609,00001.943359,00001.337891,-00000.419922,-00000.068359,-00000.551758,-00000.009766,-00000.068359,-00000.224609
0000000002689,00002.006836,00001.196289,00001.518555,00001.933594,00002.387695,00002.138672,00002.314453,00002.714844,00001.933594,00001.352539,-00000.419922,-00000.068359,-00000.551758,-00000.009766,-00000.073242,-00000.219727
0000000002690,00002.001953,00001.196289,00001.518555,00001.928711,00002.387695,00002.133789,00002.314453,00002.714844,00001.928711,00001.352539,-00000.424805,-00000.068359,-00000.551758,-00000.009766,-00000.073242,-00000.219727
0000000002691,00002.001953,00001.191406,00001.513672,00001.909180,00002.382813,00002.133789,00002.299805,00002.714844,00001.923828,00001.357422,-00000.424805,-00000.068359,-00000.551758,-00000.009766,-00000.073242,-00000.214844
0000000002692,00001.997070,00001.191406,00001.513672,00001.904297,00002.377930,00002.138672,00002.299805,00002.709961,00001.923828,00001.352539,-00000.424805,-00000.063477,-00000.551758,-00000.009766,-00000.073242,-00000.214844
0000000002693,00001.997070,00001.186523,00001.513672,00001.904297,00002.377930,00002.133789,00002.304688,00002.705078,00001.923828,00001.352539,-00000.419922,-00000.063477,-00000.551758,-00000.009766,-00000.073242,-00000.214844
0000000002694,00002.001953,00001.191406,00001.513672,00001.904297,00002.382813,00002.133789,00002.304688,00002.709961,00001.923828,00001.352539,-00000.419922,-00000.068359,-00000.551758,-00000.009766,-00000.068359,-00000.214844
0000000002695,00002.001953,00001.186523,00001.513672,00001.909180,00002.377930,00002.138672,00002.299805,00002.709961,00001.923828,00001.347656,-00000.419922,-00000.068359,-00000.556641,-00000.014648,-00000.068359,-00000.214844
0000000002696,00002.001953,00001.186523,00001.513672,00001.909180,00002.377930,00002.138672,00002.299805,00002.714844,00001.923828,00001.347656,-00000.419922,-00000.068359,-00000.551758,-00000.014648,-00000.068359,-00000.209961
0000000002697,00002.001953,00001.186523,00001.513672,00001.904297,00002.382813,00002.138672,00002.299805,00002.714844,00001.918945,00001.342773,-00000.424805,-00000.063477,-00000.551758,-00000.009766,-00000.068359,-00000.205078
0000000002698,00002.001953,00001.186523,00001.518555,00001.899414,00002.377930,00002.133789,00002.299805,00002.714844,00001.918945,00001.342773,-00000.424805,-00000.063477,-00000.551758,-00000.009766,-00000.073242,-00000.205078
0000000002699,00001.997070,00001.191406,00001.513672,00001.899414,00002.382813,00002.133789,00002.304688,00002.709961,00001.923828,00001.342773,-00000.429688,-00000.063477,-00000.551758,-00000.009766,-00000.078125,-00000.205078
0000000002700,00001.997070,00001.191406,00001.513672,00001.899414,00002.377930,00002.133789,00002.304688,00002.705078,00001.923828,00001.337891,-00000.429688,-00000.063477,-00000.551758,-00000.009766,-00000.073242,-00000.200195
0000000002701,00001.997070,00001.186523,00001.513672,00001.899414,00002.382813,00002.133789,00002.299805,00002.709961,00001.918945,00001.342773,-00000.424805,-00000.063477,-00000.551758,-00000.014648,-00000.073242,-00000.205078
0000000002702,00001.997070,00001.191406,00001.513672,00001.899414,00002.382813,00002.133789,00002.299805,00002.709961,00001.918945,00001.342773,-00000.424805,-00000.068359,-00000.551758,-00000.014648,-00000.073242,-00000.205078
0000000002703,00002.001953,00001.196289,00001.513672,00001.904297,00002.377930,00002.138672,00002.299805,00002.709961,00001.923828,00001.337891,-00000.424805,-00000.063477,-00000.551758,-00000.009766,-00000.073242,-00000.205078
0000000002704,00001.997070,00001.191406,00001.513672,00001.894531,00002.382813,00002.128906,00002.299805,00002.709961,00001.918945,00001.337891,-00000.429688,-00000.063477,-00000.551758,-00000.014648,-00000.078125,-00000.205078
0000000002705,00002.001953,00001.191406,00001.513672,00001.899414,00002.377930,00002.138672,00002.299805,00002.714844,00001.918945,00001.333008,-00000.429688,-00000.063477,-00000.556641,-00000.009766,-00000.078125,-00000.200195
0000000002706,00002.001953,00001.196289,00001.513672,00001.904297,00002.382813,00002.133789,00002.304688,00002.709961,00001.923828,00001.333008,-00000.429688,-00000.063477,-00000.556641,-00000.009766,-00000.078125,-00000.200195
0000000002707,00002.001953,00001.196289,00001.518555,00001.904297,00002.382813,00002.133789,00002.304688,00002.714844,00001.923828,00001.337891,-00000.429688,-00000.063477,-00000.556641,-00000.009766,-00000.078125,-00000.205078
0000000002708,00002.001953,00001.196289,00001.518555,00001.904297,00002.382813,00002.133789,00002.304688,00002.709961,00001.923828,00001.333008,-00000.429688,-00000.063477,-00000.556641,-00000.004883,-00000.078125,-00000.205078
0000000002709,00001.997070,00001.196289,00001.513672,00001.904297,00002.382813,00002.138672,00002.299805,00002.709961,00001.923828,00001.333008,-00000.429688,-00000.063477,-00000.556641,-00000.004883,-00000.078125,-00000.205078
0000000002710,00002.001953,00001.196289,00001.518555,00001.899414,00002.377930,00002.138672,00002.299805,00002.709961,00001.918945,00001.337891,-00000.434570,-00000.068359,-00000.556641,-00000.004883,-00000.073242,-00000.200195
0000000002711,00001.997070,00001.196289,00001.518555,00001.899414,00002.382813,00002.133789,00002.304688,00002.709961,00001.923828,00001.333008,-00000.434570,-00000.068359,-00000.556641,-00000.004883,-00000.073242,-00000.200195
0000000002712,00002.001953,00001.196289,00001.518555,00001.904297,00002.377930,00002.138672,00002.299805,00002.714844,00001.918945,00001.337891,-00000.429688,-00000.063477,-00000.556641,-00000.004883,-00000.078125,-00000.200195
0000000002713,00002.001953,00001.196289,00001.518555,00001.904297,00002.377930,00002.138672,00002.299805,00002.709961,00001.918945,00001.333008,-00000.434570,-00000.063477,-00000.551758,-00000.004883,-00000.083008,-00000.195313
0000000002714,00002.001953,00001.196289,00001.518555,00001.914063,00002.377930,00002.138672,00002.299805,00002.714844,00001.923828,00001.337891,-00000.434570,-00000.063477,-00000.551758,-00000.004883,-00000.083008,-00000.195313
0000000002715,00001.997070,00001.201172,00001.518555,00001.914063,00002.382813,00002.133789,00002.304688,00002.709961,00001.923828,00001.333008,-00000.434570,-00000.063477,-00000.551758,-00000.004883,-00000.078125,-00000.195313
0000000002716,00002.001953,00001.206055,00001.518555,00001.918945,00002.382813,00002.133789,00002.304688,00002.709961,00001.923828,00001.333008,-00000.434570,-00000.063477,-00000.556641,-00000.004883,-00000.078125,-00000.195313
0000000002717,00002.001953,00001.201172,00001.518555,00001.914063,00002.382813,00002.138672,00002.299805,00002.714844,00001.923828,00001.337891,-00000.434570,-00000.063477,-00000.551758,-00000.004883,-00000.078125,-00000.195313
0000000002718,00001.997070,00001.206055,00001.518555,00001.918945,00002.382813,00002.133789,00002.304688,00002.709961,00001.923828,00001.333008,-00000.434570,-00000.063477,-00000.551758,00000.000000,-00000.078125,-00000.195313
0000000002719,00001.997070,00001.206055,00001.518555,00001.914063,00002.382813,00002.133789,00002.304688,00002.709961,00001.923828,00001.333008,-00000.434570,-00000.058594,-00000.551758,00000.000000,-00000.083008,-00000.190430
0000000002720,00002.001953,00001.206055,00001.518555,00001.918945,00002.377930,00002.138672,00002.299805,00002.714844,00001.923828,00001.333008,-00000.434570,-00000.058594,-00000.551758,00000.000000,-00000.087891,-00000.190430
0000000002721,00002.001953,00001.206055,00001.518555,00001.923828,00002.382813,00002.138672,00002.304688,00002.714844,00001.923828,00001.333008,-00000.439453,-00000.058594,-00000.556641,-00000.004883,-00000.087891,-00000.190430
0000000002722,00002.001953,00001.210938,00001.518555,00001.923828,00002.382813,00002.138672,00002.299805,00002.714844,00001.923828,00001.337891,-00000.439453,-00000.063477,-00000.556641,-00000.004883,-00000.087891,-00000.190430
0000000002723,00002.001953,00001.215820,00001.518555,00001.928711,00002.387695,00002.138672,00002.304688,00002.714844,00001.933594,00001.337891,-00000.444336,-00000.058594,-00000.556641,-00000.004883,-00000.083008,-00000.190430
0000000002724,00002.001953,00001.210938,00001.518555,00001.923828,00002.382813,00002.138672,00002.299805,00002.714844,00001.928711,00001.337891,-00000.439453,-00000.063477,-00000.556641,-00000.004883,-00000.083008,-00000.190430
0000000002725,00001.997070,00001.215820,00001.513672,00001.923828,00002.382813,00002.138672,00002.304688,00002.709961,00001.933594,00001.333008,-00000.439453,-00000.063477,-00000.556641,-00000.004883,-00000.083008,-00000.190430
0000000002726,00001.997070,00001.210938,00001.518555,00001.923828,00002.382813,00002.138672,00002.299805,00002.714844,00001.928711,00001.333008,-00000.439453,-00000.063477,-00000.561523,-00000.009766,-00000.083008,-00000.190430
0000000002727,00002.001953,00001.210938,00001.513672,00001.933594,00002.382813,00002.138672,00002.299805,00002.714844,00001.933594,00001.333008,-00000.439453,-00000.063477,-00000.556641,-00000.009766,-00000.083008,-00000.190430
0000000002728,00001.997070,00001.215820,00001.513672,00001.938477,00002.382813,00002.138672,00002.304688,00002.714844,00001.938477,00001.337891,-00000.444336,-00000.068359,-00000.561523,-00000.004883,-00000.083008,-00000.185547
0000000002729,00002.001953,00001.215820,00001.518555,00001.933594,00002.377930,00002.138672,00002.299805,00002.714844,00001.933594,00001.337891,-00000.449219,-00000.063477,-00000.561523,-00000.004883,-00000.083008,-00000.185547
0000000002730,00002.001953,00001.215820,00001.513672,00001.933594,00002.377930,00002.138672,00002.299805,00002.714844,00001.933594,00001.337891,-00000.449219,-00000.063477,-00000.561523,00000.000000,-00000.087891,-00000.185547
0000000002731,00001.997070,00001.215820,00001.513672,00001.928711,00002.387695,00002.138672,00002.304688,00002.709961,00001.938477,00001.337891,-00000.454102,-00000.063477,-00000.556641,-00000.004883,-00000.092773,-00000.185547
0000000002732,00002.001953,00001.210938,00001.513672,00001.928711,00002.377930,00002.138672,00002.299805,00002.714844,00001.928711,00001.333008,-00000.458984,-00000.063477,-00000.556641,-00000.004883,-00000.092773,-00000.185547
0000000002733,00002.001953,00001.215820,00001.513672,00001.928711,00002.382813,00002.138672,00002.299805,00002.714844,00001.933594,00001.333008,-00000.458984,-00000.063477,-00000.556641,-00000.004883,-00000.092773,-00000.185547
0000000002734,00002.001953,00001.215820,00001.513672,00001.923828,00002.382813,00002.138672,00002.304688,00002.719727,00001.933594,00001.337891,-00000.458984,-00000.063477,-00000.551758,00000.000000,-00000.087891,-00000.185547
0000000002735,00001.997070,00001.215820,00001.508789,00001.909180,00002.382813,00002.133789,00002.304688,00002.709961,00001.928711,00001.337891,-00000.454102,-00000.063477,-00000.556641,00000.000000,-00000.083008,-00000.185547
0000000002736,00001.977539,00001.210938,00001.503906,00001.889648,00002.382813,00002.138672,00002.304688,00002.709961,00001.923828,00001.352539,-00000.449219,-00000.063477,-00000.551758,00000.000000,-00000.087891,-00000.185547
0000000002737,00001.972656,00001.206055,00001.503906,00001.875000,00002.377930,00002.138672,00002.299805,00002.714844,00001.918945,00001.352539,-00000.449219,-00000.058594,-00000.551758,00000.000000,-00000.087891,-00000.185547
0000000002738,00001.967773,00001.206055,00001.499023,00001.870117,00002.377930,00002.133789,00002.299805,00002.705078,00001.914063,00001.342773,-00000.449219,-00000.058594,-00000.551758,00000.004883,-00000.087891,-00000.180664
0000000002739,00001.953125,00001.201172,00001.499023,00001.860352,00002.373047,00002.128906,00002.294922,00002.700195,00001.909180,00001.342773,-00000.454102,-00000.063477,-00000.551758,00000.000000,-00000.092773,-00000.180664
0000000002740,00001.943359,00001.201172,00001.499023,00001.865234,00002.373047,00002.128906,00002.299805,00002.705078,00001.909180,00001.342773,-00000.463867,-00000.058594,-00000.551758,-00000.004883,-00000.087891,-00000.180664
0000000002741,00001.943359,00001.201172,00001.494141,00001.865234,00002.373047,00002.133789,00002.294922,00002.700195,00001.909180,00001.342773,-00000.468750,-00000.063477,-00000.551758,00000.000000,-00000.087891,-00000.180664
0000000002742,00001.938477,00001.201172,00001.489258,00001.860352,00002.373047,00002.128906,00002.294922,00002.700195,00001.909180,00001.342773,-00000.468750,-00000.058594,-00000.551758,00000.000000,-00000.087891,-00000.180664
0000000002743,00001.943359,00001.201172,00001.484375,00001.850586,00002.373047,00002.128906,00002.294922,00002.700195,00001.904297,00001.342773,-00000.473633,-00000.063477,-00000.551758,00000.000000,-00000.087891,-00000.175781
0000000002744,00001.943359,00001.201172,00001.484375,00001.850586,00002.373047,00002.128906,00002.294922,00002.700195,00001.904297,00001.342773,-00000.473633,-00000.063477,-00000.551758,00000.000000,-00000.087891,-00000.175781
0000000002745,00001.943359,00001.201172,00001.479492,00001.845703,00002.368164,00002.128906,00002.294922,00002.700195,00001.904297,00001.342773,-00000.468750,-00000.063477,-00000.551758,-00000.004883,-00000.087891,-00000.175781
0000000002746,00001.938477,00001.201172,00001.479492,00001.845703,00002.373047,00002.128906,00002.294922,00002.700195,00001.904297,00001.342773,-00000.473633,-00000.063477,-00000.551758,00000.000000,-00000.083008,-00000.175781
0000000002747,00001.938477,00001.206055,00001.469727,00001.850586,00002.373047,00002.128906,00002.299805,00002.695313,00001.909180,00001.342773,-00000.473633,-00000.068359,-00000.556641,00000.000000,-00000.087891,-00000.175781
0000000002748,00001.943359,00001.201172,00001.469727,00001.845703,00002.368164,00002.128906,00002.294922,00002.700195,00001.909180,00001.342773,-00000.473633,-00000.068359,-00000.556641,00000.000000,-00000.087891,-00000.180664
0000000002749,00001.938477,00001.201172,00001.469727,00001.845703,00002.373047,00002.128906,00002.294922,00002.695313,00001.909180,00001.342773,-00000.473633,-00000.068359,-00000.556641,00000.000000,-00000.083008,-00000.180664
0000000002750,00001.933594,00001.201172,00001.469727,00001.850586,00002.373047,00002.124023,00002.299805,00002.695313,00001.909180,00001.342773,-00000.468750,-00000.068359,-00000.556641,00000.000000,-00000.083008,-00000.175781
0000000002751,00001.938477,00001.206055,00001.464844,00001.855469,00002.373047,00002.128906,00002.299805,00002.700195,00001.914063,00001.347656,-00000.468750,-00000.068359,-00000.561523,00000.004883,-00000.083008,-00000.175781
0000000002752,00001.943359,00001.201172,00001.464844,00001.855469,00002.373047,00002.133789,00002.294922,00002.700195,00001.909180,00001.347656,-00000.473633,-00000.068359,-00000.556641,00000.004883,-00000.083008,-00000.175781
0000000002753,00001.943359,00001.206055,00001.464844,00001.855469,00002.373047,00002.133789,00002.294922,00002.700195,00001.914063,00001.347656,-00000.473633,-00000.068359,-00000.556641,00000.004883,-00000.087891,-00000.170898
0000000002754,00001.943359,00001.206055,00001.469727,00001.850586,00002.373047,00002.128906,00002.294922,00002.705078,00001.909180,00001.347656,-00000.478516,-00000.063477,-00000.556641,00000.004883,-00000.087891,-00000.170898
0000000002755,00001.943359,00001.201172,00001.464844,00001.850586,00002.373047,00002.128906,00002.294922,00002.700195,00001.909180,00001.347656,-00000.478516,-00000.063477,-00000.556641,00000.004883,-00000.087891,-00000.170898
0000000002756,00001.943359,00001.201172,00001.464844,00001.850586,00002.368164,00002.128906,00002.294922,00002.700195,00001.909180,00001.342773,-00000.478516,-00000.063477,-00000.551758,00000.004883,-00000.087891,-00000.170898
0000000002757,00001.938477,00001.206055,00001.464844,00001.850586,00002.377930,00002.124023,00002.299805,00002.700195,00001.909180,00001.347656,-00000.473633,-00000.063477,-00000.561523,00000.004883,-00000.087891,-00000.170898
0000000002758,00001.943359,00001.206055,00001.464844,00001.850586,00002.373047,00002.128906,00002.294922,00002.700195,00001.909180,00001.352539,-00000.463867,-00000.063477,-00000.556641,00000.004883,-00000.083008,-00000.170898
0000000002759,00001.943359,00001.210938,00001.464844,00001.860352,00002.377930,00002.128906,00002.299805,00002.700195,00001.914063,00001.357422,-00000.463867,-00000.068359,-00000.561523,00000.004883,-00000.083008,-00000.170898
0000000002760,00001.943359,00001.206055,00001.464844,00001.865234,00002.373047,00002.133789,00002.294922,00002.700195,00001.914063,00001.357422,-00000.468750,-00000.068359,-00000.561523,00000.000000,-00000.092773,-00000.170898
0000000002761,00001.938477,00001.206055,00001.464844,00001.855469,00002.377930,00002.128906,00002.299805,00002.705078,00001.914063,00001.357422,-00000.468750,-00000.068359,-00000.561523,00000.000000,-00000.092773,-00000.170898
0000000002762,00001.943359,00001.206055,00001.464844,00001.855469,00002.377930,00002.128906,00002.299805,00002.705078,00001.914063,00001.362305,-00000.463867,-00000.068359,-00000.556641,00000.004883,-00000.092773,-00000.170898
0000000002763,00001.943359,00001.210938,00001.464844,00001.855469,00002.377930,00002.128906,00002.299805,00002.700195,00001.914063,00001.362305,-00000.463867,-00000.063477,-00000.556641,00000.004883,-00000.083008,-00000.170898
0000000002764,00001.958008,00001.210938,00001.469727,00001.860352,00002.377930,00002.128906,00002.294922,00002.705078,00001.914063,00001.362305,-00000.463867,-00000.063477,-00000.556641,00000.004883,-00000.083008,-00000.170898
0000000002765,00001.958008,00001.210938,00001.469727,00001.865234,00002.377930,00002.133789,00002.304688,00002.705078,00001.914063,00001.352539,-00000.468750,-00000.068359,-00000.556641,00000.004883,-00000.087891,-00000.166016
0000000002766,00001.958008,00001.215820,00001.464844,00001.865234,00002.377930,00002.133789,00002.299805,00002.705078,00001.918945,00001.352539,-00000.468750,-00000.063477,-00000.556641,00000.004883,-00000.087891,-00000.161133
0000000002767,00001.962891,00001.210938,00001.469727,00001.860352,00002.377930,00002.133789,00002.299805,00002.709961,00001.914063,00001.357422,-00000.478516,-00000.068359,-00000.556641,00000.004883,-00000.087891,-00000.161133
0000000002768,00001.962891,00001.210938,00001.464844,00001.865234,00002.373047,00002.133789,00002.299805,00002.709961,00001.918945,00001.352539,-00000.483398,-00000.063477,-00000.556641,00000.000000,-00000.087891,-00000.166016
0000000002769,00001.962891,00001.215820,00001.459961,00001.860352,00002.377930,00002.133789,00002.299805,00002.709961,00001.918945,00001.357422,-00000.483398,-00000.068359,-00000.556641,00000.000000,-00000.087891,-00000.166016
0000000002770,00001.967773,00001.215820,00001.464844,00001.865234,00002.373047,00002.138672,00002.294922,00002.714844,00001.918945,00001.347656,-00000.483398,-00000.068359,-00000.556641,00000.000000,-00000.092773,-00000.166016
0000000002771,00001.972656,00001.215820,00001.464844,00001.865234,00002.377930,00002.133789,00002.294922,00002.709961,00001.918945,00001.342773,-00000.478516,-00000.068359,-00000.561523,00000.000000,-00000.092773,-00000.166016
0000000002772,00001.967773,00001.220703,00001.459961,00001.865234,00002.377930,00002.133789,00002.304688,00002.705078,00001.923828,00001.337891,-00000.478516,-00000.068359,-00000.561523,00000.000000,-00000.092773,-00000.166016
0000000002773,00001.967773,00001.215820,00001.459961,00001.860352,00002.373047,00002.133789,00002.294922,00002.709961,00001.918945,00001.337891,-00000.478516,-00000.068359,-00000.556641,00000.000000,-00000.087891,-00000.166016
0000000002774,00001.967773,00001.215820,00001.459961,00001.865234,00002.377930,00002.133789,00002.299805,00002.705078,00001.923828,00001.342773,-00000.483398,-00000.063477,-00000.556641,00000.004883,-00000.092773,-00000.170898
0000000002775,00001.967773,00001.220703,00001.455078,00001.865234,00002.377930,00002.133789,00002.299805,00002.705078,00001.923828,00001.342773,-00000.488281,-00000.063477,-00000.556641,00000.004883,-00000.092773,-00000.166016
0000000002776,00001.967773,00001.220703,00001.450195,00001.860352,00002.377930,00002.133789,00002.304688,00002.709961,00001.923828,00001.337891,-00000.493164,-00000.063477,-00000.556641,00000.004883,-00000.097656,-00000.166016
0000000002777,00001.977539,00001.225586,00001.450195,00001.865234,00002.382813,00002.133789,00002.304688,00002.714844,00001.923828,00001.337891,-00000.498047,-00000.068359,-00000.561523,00000.004883,-00000.097656,-00000.161133
0000000002778,00001.977539,00001.225586,00001.445313,00001.865234,00002.377930,00002.138672,00002.299805,00002.714844,00001.928711,00001.337891,-00000.493164,-00000.068359,-00000.561523,00000.004883,-00000.097656,-00000.161133
0000000002779,00001.972656,00001.225586,00001.445313,00001.865234,00002.382813,00002.133789,00002.299805,00002.709961,00001.933594,00001.337891,-00000.488281,-00000.068359,-00000.561523,00000.004883,-00000.092773,-00000.166016
0000000002780,00001.982422,00001.225586,00001.445313,00001.865234,00002.377930,00002.138672,00002.299805,00002.709961,00001.933594,00001.337891,-00000.488281,-00000.068359,-00000.561523,00000.004883,-00000.087891,-00000.166016
0000000002781,00001.992188,00001.225586,00001.445313,00001.865234,00002.377930,00002.133789,00002.304688,00002.709961,00001.938477,00001.333008,-00000.488281,-00000.068359,-00000.556641,00000.004883,-00000.087891,-00000.166016
0000000002782,00001.997070,00001.225586,00001.445313,00001.870117,00002.382813,00002.133789,00002.304688,00002.714844,00001.938477,00001.337891,-00000.493164,-00000.068359,-00000.561523,00000.009766,-00000.087891,-00000.166016
0000000002783,00001.992188,00001.225586,00001.445313,00001.865234,00002.377930,00002.138672,00002.299805,00002.714844,00001.928711,00001.347656,-00000.493164,-00000.063477,-00000.556641,00000.009766,-00000.092773,-00000.161133
0000000002784,00001.972656,00001.220703,00001.445313,00001.865234,00002.377930,00002.133789,00002.299805,00002.714844,00001.923828,00001.352539,-00000.498047,-00000.068359,-00000.561523,00000.014648,-00000.092773,-00000.156250
0000000002785,00001.943359,00001.215820,00001.440430,00001.845703,00002.373047,00002.133789,00002.294922,00002.709961,00001.918945,00001.342773,-00000.498047,-00000.068359,-00000.561523,00000.009766,-00000.092773,-00000.156250
0000000002786,00001.938477,00001.215820,00001.440430,00001.845703,00002.373047,00002.128906,00002.299805,00002.700195,00001.918945,00001.337891,-00000.493164,-00000.068359,-00000.561523,00000.009766,-00000.092773,-00000.161133
0000000002787,00001.938477,00001.215820,00001.440430,00001.840820,00002.373047,00002.128906,00002.299805,00002.700195,00001.918945,00001.337891,-00000.488281,-00000.068359,-00000.561523,00000.004883,-00000.092773,-00000.161133
0000000002788,00001.938477,00001.215820,00001.430664,00001.835938,00002.373047,00002.124023,00002.299805,00002.700195,00001.914063,00001.337891,-00000.488281,-00000.068359,-00000.561523,00000.004883,-00000.092773,-00000.166016
0000000002789,00001.938477,00001.215820,00001.435547,00001.840820,00002.373047,00002.128906,00002.299805,00002.700195,00001.918945,00001.337891,-00000.493164,-00000.068359,-00000.561523,00000.004883,-00000.087891,-00000.166016
0000000002790,00001.938477,00001.210938,00001.435547,00001.835938,00002.373047,00002.124023,00002.294922,00002.700195,00001.914063,00001.337891,-00000.493164,-00000.068359,-00000.561523,00000.004883,-00000.087891,-00000.161133
0000000002791,00001.938477,00001.210938,00001.435547,00001.835938,00002.373047,00002.128906,00002.294922,00002.700195,00001.914063,00001.342773,-00000.498047,-00000.068359,-00000.561523,00000.004883,-00000.092773,-00000.161133
0000000002792,00001.943359,00001.206055,00001.440430,00001.835938,00002.373047,00002.128906,00002.294922,00002.705078,00001.914063,00001.342773,-00000.493164,-00000.068359,-00000.561523,00000.004883,-00000.092773,-00000.161133
0000000002793,00001.943359,00001.210938,00001.440430,00001.835938,00002.373047,00002.133789,00002.294922,00002.700195,00001.914063,00001.342773,-00000.488281,-00000.068359,-00000.561523,00000.000000,-00000.092773,-00000.166016
0000000002794,00001.943359,00001.206055,00001.440430,00001.831055,00002.373047,00002.128906,00002.294922,00002.700195,00001.914063,00001.347656,-00000.483398,-00000.068359,-00000.561523,00000.000000,-00000.092773,-00000.166016
0000000002795,00001.958008,00001.206055,00001.440430,00001.835938,00002.373047,00002.128906,00002.294922,00002.705078,00001.914063,00001.347656,-00000.483398,-00000.068359,-00000.561523,00000.000000,-00000.087891,-00000.166016
0000000002796,00001.953125,00001.210938,00001.440430,00001.835938,00002.373047,00002.128906,00002.299805,00002.700195,00001.914063,00001.342773,-00000.488281,-00000.068359,-00000.561523,-00000.004883,-00000.087891,-00000.170898
0000000002797,00001.953125,00001.210938,00001.435547,00001.826172,00002.373047,00002.124023,00002.294922,00002.700195,00001.914063,00001.347656,-00000.488281,-00000.068359,-00000.556641,00000.000000,-00000.087891,-00000.166016
0000000002798,00001.958008,00001.210938,00001.440430,00001.835938,00002.373047,00002.133789,00002.294922,00002.700195,00001.914063,00001.347656,-00000.493164,-00000.063477,-00000.561523,-00000.004883,-00000.087891,-00000.166016
0000000002799,00001.958008,00001.210938,00001.440430,00001.835938,00002.377930,00002.128906,00002.299805,00002.700195,00001.914063,00001.357422,-00000.498047,-00000.068359,-00000.561523,-00000.004883,-00000.092773,-00000.161133
0000000002800,00001.958008,00001.206055,00001.440430,00001.831055,00002.373047,00002.128906,00002.299805,00002.705078,00001.914063,00001.362305,-00000.498047,-00000.068359,-00000.556641,-00000.004883,-00000.092773,-00000.161133
0000000002801,00001.972656,00001.210938,00001.440430,00001.840820,00002.373047,00002.133789,00002.294922,00002.705078,00001.918945,00001.357422,-00000.493164,-00000.068359,-00000.561523,-00000.014648,-00000.092773,-00000.161133
0000000002802,00001.997070,00001.210938,00001.445313,00001.840820,00002.373047,00002.133789,00002.299805,00002.709961,00001.918945,00001.347656,-00000.493164,-00000.068359,-00000.561523,-00000.019531,-00000.092773,-00000.166016
0000000002803,00002.001953,00001.210938,00001.445313,00001.845703,00002.373047,00002.138672,00002.299805,00002.714844,00001.918945,00001.357422,-00000.498047,-00000.068359,-00000.561523,-00000.029297,-00000.087891,-00000.170898
0000000002804,00001.997070,00001.215820,00001.440430,00001.855469,00002.377930,00002.133789,00002.299805,00002.705078,00001.923828,00001.352539,-00000.502930,-00000.063477,-00000.556641,-00000.039063,-00000.087891,-00000.166016
0000000002805,00002.001953,00001.210938,00001.445313,00001.855469,00002.377930,00002.133789,00002.299805,00002.714844,00001.918945,00001.352539,-00000.512695,-00000.063477,-00000.551758,-00000.048828,-00000.092773,-00000.161133
0000000002806,00002.001953,00001.215820,00001.440430,00001.860352,00002.377930,00002.133789,00002.299805,00002.714844,00001.923828,00001.347656,-00000.512695,-00000.058594,-00000.546875,-00000.053711,-00000.097656,-00000.156250
0000000002807,00002.011719,00001.210938,00001.440430,00001.850586,00002.377930,00002.133789,00002.299805,00002.714844,00001.923828,00001.347656,-00000.512695,-00000.058594,-00000.546875,-00000.058594,-00000.102539,-00000.156250
0000000002808,00002.011719,00001.210938,00001.440430,00001.850586,00002.377930,00002.133789,00002.299805,00002.719727,00001.928711,00001.347656,-00000.512695,-00000.053711,-00000.541992,-00000.063477,-00000.102539,-00000.156250
0000000002809,00002.016602,00001.210938,00001.440430,00001.855469,00002.382813,00002.133789,00002.299805,00002.719727,00001.933594,00001.352539,-00000.512695,-00000.058594,-00000.541992,-00000.068359,-00000.097656,-00000.156250
0000000002810,00002.016602,00001.215820,00001.445313,00001.860352,00002.382813,00002.133789,00002.304688,00002.724609,00001.938477,00001.347656,-00000.512695,-00000.058594,-00000.541992,-00000.068359,-00000.092773,-00000.156250
0000000002811,00002.011719,00001.215820,00001.440430,00001.860352,00002.377930,00002.133789,00002.304688,00002.719727,00001.943359,00001.347656,-00000.507813,-00000.058594,-00000.541992,-00000.068359,-00000.092773,-00000.156250
0000000002812,00002.026367,00001.215820,00001.445313,00001.865234,00002.382813,00002.138672,00002.304688,00002.724609,00001.943359,00001.347656,-00000.502930,-00000.058594,-00000.546875,-00000.068359,-00000.087891,-00000.156250
0000000002813,00002.031250,00001.215820,00001.445313,00001.884766,00002.382813,00002.143555,00002.314453,00002.724609,00001.948242,00001.352539,-00000.498047,-00000.058594,-00000.546875,-00000.068359,-00000.087891,-00000.161133
0000000002814,00002.036133,00001.220703,00001.450195,00001.889648,00002.387695,00002.138672,00002.314453,00002.724609,00001.948242,00001.347656,-00000.493164,-00000.058594,-00000.546875,-00000.073242,-00000.087891,-00000.161133
0000000002815,00002.036133,00001.220703,00001.445313,00001.909180,00002.387695,00002.138672,00002.319336,00002.724609,00001.948242,00001.352539,-00000.488281,-00000.058594,-00000.546875,-00000.073242,-00000.092773,-00000.161133
0000000002816,00002.036133,00001.220703,00001.455078,00001.914063,00002.382813,00002.143555,00002.314453,00002.729492,00001.948242,00001.347656,-00000.493164,-00000.058594,-00000.546875,-00000.073242,-00000.097656,-00000.156250
0000000002817,00002.036133,00001.215820,00001.459961,00001.918945,00002.387695,00002.143555,00002.314453,00002.729492,00001.953125,00001.357422,-00000.498047,-00000.058594,-00000.546875,-00000.068359,-00000.097656,-00000.151367
0000000002818,00002.041016,00001.215820,00001.464844,00001.923828,00002.387695,00002.143555,00002.314453,00002.729492,00001.953125,00001.352539,-00000.493164,-00000.058594,-00000.546875,-00000.068359,-00000.092773,-00000.151367
0000000002819,00002.041016,00001.220703,00001.469727,00001.918945,00002.387695,00002.138672,00002.319336,00002.729492,00001.953125,00001.352539,-00000.493164,-00000.058594,-00000.546875,-00000.068359,-00000.092773,-00000.151367
0000000002820,00002.036133,00001.220703,00001.474609,00001.923828,00002.387695,00002.138672,00002.319336,00002.724609,00001.953125,00001.347656,-00000.488281,-00000.058594,-00000.546875,-00000.068359,-00000.092773,-00000.151367
0000000002821,00002.045898,00001.220703,00001.479492,00001.928711,00002.387695,00002.148438,00002.319336,00002.734375,00001.953125,00001.357422,-00000.483398,-00000.058594,-00000.546875,-00000.073242,-00000.092773,-00000.146484
0000000002822,00002.041016,00001.220703,00001.479492,00001.938477,00002.392578,00002.143555,00002.319336,00002.729492,00001.958008,00001.362305,-00000.478516,-00000.058594,-00000.546875,-00000.073242,-00000.092773,-00000.146484
0000000002823,00002.045898,00001.220703,00001.484375,00001.953125,00002.392578,00002.143555,00002.319336,00002.739258,00001.962891,00001.367188,-00000.478516,-00000.063477,-00000.551758,-00000.068359,-00000.092773,-00000.151367
0000000002824,00002.041016,00001.220703,00001.479492,00001.953125,00002.387695,00002.143555,00002.319336,00002.729492,00001.962891,00001.362305,-00000.478516,-00000.058594,-00000.546875,-00000.068359,-00000.087891,-00000.151367
0000000002825,00002.045898,00001.220703,00001.484375,00001.958008,00002.392578,00002.148438,00002.319336,00002.734375,00001.962891,00001.362305,-00000.478516,-00000.058594,-00000.546875,-00000.068359,-00000.087891,-00000.151367
0000000002826,00002.041016,00001.225586,00001.479492,00001.953125,00002.392578,00002.143555,00002.324219,00002.734375,00001.962891,00001.362305,-00000.483398,-00000.058594,-00000.546875,-00000.068359,-00000.087891,-00000.151367
0000000002827,00002.045898,00001.220703,00001.479492,00001.948242,00002.387695,00002.148438,00002.319336,00002.734375,00001.962891,00001.362305,-00000.483398,-00000.058594,-00000.546875,-00000.068359,-00000.092773,-00000.151367
0000000002828,00002.045898,00001.220703,00001.484375,00001.948242,00002.392578,00002.148438,00002.319336,00002.729492,00001.962891,00001.357422,-00000.483398,-00000.063477,-00000.546875,-00000.068359,-00000.092773,-00000.151367
0000000002829,00002.041016,00001.220703,00001.474609,00001.953125,00002.392578,00002.148438,00002.319336,00002.734375,00001.962891,00001.347656,-00000.478516,-00000.063477,-00000.551758,-00000.068359,-00000.087891,-00000.151367
0000000002830,00002.036133,00001.220703,00001.474609,00001.928711,00002.387695,00002.143555,00002.319336,00002.724609,00001.958008,00001.342773,-00000.473633,-00000.063477,-00000.551758,-00000.068359,-00000.087891,-00000.151367
0000000002831,00002.036133,00001.215820,00001.474609,00001.923828,00002.387695,00002.143555,00002.314453,00002.729492,00001.953125,00001.347656,-00000.473633,-00000.063477,-00000.551758,-00000.068359,-00000.083008,-00000.156250
0000000002832,00002.031250,00001.215820,00001.474609,00001.918945,00002.392578,00002.143555,00002.319336,00002.724609,00001.953125,00001.337891,-00000.468750,-00000.063477,-00000.551758,-00000.073242,-00000.083008,-00000.156250
0000000002833,00002.031250,00001.215820,00001.469727,00001.909180,00002.387695,00002.138672,00002.319336,00002.719727,00001.948242,00001.337891,-00000.463867,-00000.063477,-00000.551758,-00000.068359,-00000.083008,-00000.156250
0000000002834,00002.026367,00001.210938,00001.464844,00001.884766,00002.382813,00002.138672,00002.314453,00002.719727,00001.948242,00001.337891,-00000.473633,-00000.063477,-00000.551758,-00000.068359,-00000.087891,-00000.156250
0000000002835,00002.031250,00001.206055,00001.464844,00001.875000,00002.382813,00002.138672,00002.314453,00002.724609,00001.943359,00001.337891,-00000.478516,-00000.063477,-00000.551758,-00000.068359,-00000.092773,-00000.156250
0000000002836,00002.026367,00001.206055,00001.459961,00001.870117,00002.377930,00002.138672,00002.314453,00002.724609,00001.943359,00001.342773,-00000.483398,-00000.063477,-00000.551758,-00000.068359,-00000.092773,-00000.156250
0000000002837,00002.026367,00001.206055,00001.459961,00001.870117,00002.377930,00002.138672,00002.309570,00002.724609,00001.938477,00001.347656,-00000.483398,-00000.063477,-00000.551758,-00000.068359,-00000.092773,-00000.151367
0000000002838,00002.026367,00001.206055,00001.464844,00001.870117,00002.382813,00002.138672,00002.309570,00002.724609,00001.938477,00001.342773,-00000.478516,-00000.058594,-00000.551758,-00000.068359,-00000.092773,-00000.151367
0000000002839,00002.026367,00001.210938,00001.464844,00001.870117,00002.382813,00002.138672,00002.314453,00002.719727,00001.938477,00001.342773,-00000.478516,-00000.063477,-00000.546875,-00000.068359,-00000.087891,-00000.161133
0000000002840,00002.031250,00001.210938,00001.459961,00001.870117,00002.377930,00002.138672,00002.309570,00002.724609,00001.938477,00001.342773,-00000.478516,-00000.063477,-00000.546875,-00000.068359,-00000.083008,-00000.161133
0000000002841,00002.026367,00001.210938,00001.459961,00001.870117,00002.382813,00002.138672,00002.314453,00002.724609,00001.938477,00001.342773,-00000.478516,-00000.063477,-00000.546875,-00000.068359,-00000.087891,-00000.156250
0000000002842,00002.031250,00001.210938,00001.459961,00001.879883,00002.382813,00002.143555,00002.314453,00002.724609,00001.943359,00001.342773,-00000.478516,-00000.063477,-00000.546875,-00000.068359,-00000.092773,-00000.156250
0000000002843,00002.026367,00001.210938,00001.464844,00001.894531,00002.382813,00002.138672,00002.309570,00002.724609,00001.943359,00001.347656,-00000.473633,-00000.063477,-00000.546875,-00000.068359,-00000.083008,-00000.161133
0000000002844,00002.026367,00001.215820,00001.464844,00001.904297,00002.387695,00002.138672,00002.314453,00002.724609,00001.948242,00001.352539,-00000.468750,-00000.063477,-00000.551758,-00000.068359,-00000.083008,-00000.161133
0000000002845,00002.026367,00001.215820,00001.464844,00001.914063,00002.382813,00002.143555,00002.314453,00002.724609,00001.948242,00001.342773,-00000.463867,-00000.063477,-00000.551758,-00000.068359,-00000.078125,-00000.166016
0000000002846,00002.031250,00001.210938,00001.469727,00001.914063,00002.387695,00002.143555,00002.314453,00002.724609,00001.943359,00001.342773,-00000.463867,-00000.063477,-00000.551758,-00000.068359,-00000.078125,-00000.166016
0000000002847,00002.026367,00001.215820,00001.464844,00001.904297,00002.382813,00002.133789,00002.314453,00002.719727,00001.948242,00001.337891,-00000.468750,-00000.063477,-00000.551758,-00000.068359,-00000.083008,-00000.161133
0000000002848,00002.031250,00001.215820,00001.464844,00001.909180,00002.387695,00002.143555,00002.319336,00002.719727,00001.948242,00001.337891,-00000.473633,-00000.063477,-00000.546875,-00000.068359,-00000.083008,-00000.161133
0000000002849,00002.031250,00001.210938,00001.464844,00001.904297,00002.382813,00002.138672,00002.314453,00002.724609,00001.943359,00001.337891,-00000.473633,-00000.063477,-00000.546875,-00000.068359,-00000.083008,-00000.161133
0000000002850,00002.031250,00001.215820,00001.464844,00001.909180,00002.382813,00002.143555,00002.314453,00002.724609,00001.948242,00001.337891,-00000.468750,-00000.063477,-00000.546875,-00000.063477,-00000.078125,-00000.161133
0000000002851,00002.026367,00001.215820,00001.464844,00001.904297,00002.387695,00002.138672,00002.319336,00002.724609,00001.948242,00001.337891,-00000.468750,-00000.063477,-00000.546875,-00000.063477,-00000.073242,-00000.161133
0000000002852,00002.031250,00001.215820,00001.459961,00001.904297,00002.387695,00002.138672,00002.314453,00002.719727,00001.948242,00001.337891,-00000.468750,-00000.058594,-00000.546875,-00000.063477,-00000.073242,-00000.166016
0000000002853,00002.036133,00001.210938,00001.464844,00001.904297,00002.382813,00002.143555,00002.309570,00002.729492,00001.943359,00001.337891,-00000.468750,-00000.058594,-00000.541992,-00000.063477,-00000.078125,-00000.166016
0000000002854,00002.031250,00001.215820,00001.469727,00001.909180,00002.387695,00002.138672,00002.314453,00002.724609,00001.948242,00001.337891,-00000.478516,-00000.058594,-00000.541992,-00000.063477,-00000.078125,-00000.161133
0000000002855,00002.031250,00001.210938,00001.474609,00001.904297,00002.382813,00002.143555,00002.309570,00002.724609,00001.948242,00001.342773,-00000.478516,-00000.058594,-00000.541992,-00000.063477,-00000.083008,-00000.161133
0000000002856,00002.036133,00001.210938,00001.474609,00001.909180,00002.382813,00002.143555,00002.314453,00002.724609,00001.948242,00001.337891,-00000.483398,-00000.053711,-00000.541992,-00000.063477,-00000.083008,-00000.156250
0000000002857,00002.036133,00001.210938,00001.474609,00001.909180,00002.382813,00002.143555,00002.314453,00002.724609,00001.943359,00001.342773,-00000.483398,-00000.058594,-00000.541992,-00000.063477,-00000.083008,-00000.156250
0000000002858,00002.031250,00001.215820,00001.474609,00001.918945,00002.382813,00002.143555,00002.314453,00002.724609,00001.948242,00001.342773,-00000.478516,-00000.053711,-00000.541992,-00000.063477,-00000.083008,-00000.156250
0000000002859,00002.036133,00001.215820,00001.474609,00001.914063,00002.387695,00002.138672,00002.314453,00002.724609,00001.943359,00001.342773,-00000.473633,-00000.053711,-00000.546875,-00000.063477,-00000.087891,-00000.156250
0000000002860,00002.036133,00001.210938,00001.474609,00001.918945,00002.382813,00002.143555,00002.314453,00002.729492,00001.943359,00001.342773,-00000.473633,-00000.058594,-00000.541992,-00000.063477,-00000.087891,-00000.161133
0000000002861,00002.036133,00001.215820,00001.474609,00001.918945,00002.387695,00002.143555,00002.314453,00002.729492,00001.943359,00001.342773,-00000.478516,-00000.058594,-00000.541992,-00000.058594,-00000.083008,-00000.161133
0000000002862,00002.036133,00001.215820,00001.479492,00001.918945,00002.387695,00002.143555,00002.314453,00002.729492,00001.948242,00001.342773,-00000.478516,-00000.058594,-00000.541992,-00000.058594,-00000.083008,-00000.161133
0000000002863,00002.031250,00001.215820,00001.474609,00001.923828,00002.382813,00002.143555,00002.319336,00002.724609,00001.948242,00001.347656,-00000.483398,-00000.058594,-00000.541992,-00000.058594,-00000.083008,-00000.156250
0000000002864,00002.036133,00001.215820,00001.479492,00001.923828,00002.382813,00002.143555,00002.314453,00002.729492,00001.948242,00001.337891,-00000.478516,-00000.058594,-00000.541992,-00000.058594,-00000.087891,-00000.151367
0000000002865,00002.036133,00001.215820,00001.479492,00001.928711,00002.382813,00002.143555,00002.314453,00002.729492,00001.953125,00001.337891,-00000.478516,-00000.053711,-00000.541992,-00000.058594,-00000.087891,-00000.156250
0000000002866,00002.041016,00001.215820,00001.484375,00001.928711,00002.382813,00002.143555,00002.314453,00002.734375,00001.948242,00001.342773,-00000.478516,-00000.058594,-00000.541992,-00000.063477,-00000.087891,-00000.156250
0000000002867,00002.041016,00001.215820,00001.484375,00001.928711,00002.387695,00002.143555,00002.314453,00002.729492,00001.948242,00001.347656,-00000.483398,-00000.053711,-00000.541992,-00000.058594,-00000.087891,-00000.151367
0000000002868,00002.036133,00001.220703,00001.479492,00001.928711,00002.387695,00002.143555,00002.319336,00002.724609,00001.953125,00001.342773,-00000.488281,-00000.058594,-00000.541992,-00000.058594,-00000.087891,-00000.151367
0000000002869,00002.041016,00001.215820,00001.484375,00001.923828,00002.382813,00002.148438,00002.314453,00002.729492,00001.948242,00001.342773,-00000.493164,-00000.053711,-00000.537109,-00000.058594,-00000.083008,-00000.151367
0000000002870,00002.036133,00001.215820,00001.484375,00001.923828,00002.387695,00002.143555,00002.319336,00002.729492,00001.953125,00001.342773,-00000.498047,-00000.058594,-00000.537109,-00000.058594,-00000.087891,-00000.151367
0000000002871,00002.041016,00001.215820,00001.484375,00001.918945,00002.387695,00002.143555,00002.314453,00002.729492,00001.948242,00001.342773,-00000.517578,-00000.058594,-00000.537109,-00000.058594,-00000.092773,-00000.151367
0000000002872,00002.036133,00001.215820,00001.479492,00001.904297,00002.387695,00002.138672,00002.319336,00002.724609,00001.948242,00001.337891,-00000.537109,-00000.058594,-00000.537109,-00000.053711,-00000.097656,-00000.151367
0000000002873,00002.036133,00001.210938,00001.474609,00001.889648,00002.377930,00002.143555,00002.314453,00002.724609,00001.943359,00001.342773,-00000.561523,-00000.058594,-00000.532227,-00000.048828,-00000.097656,-00000.151367
0000000002874,00002.031250,00001.220703,00001.474609,00001.879883,00002.382813,00002.143555,00002.319336,00002.724609,00001.948242,00001.337891,-00000.585938,-00000.058594,-00000.527344,-00000.043945,-00000.097656,-00000.151367
0000000002875,00002.026367,00001.215820,00001.459961,00001.865234,00002.373047,00002.143555,00002.309570,00002.724609,00001.948242,00001.337891,-00000.625000,-00000.063477,-00000.522461,-00000.039063,-00000.102539,-00000.151367
0000000002876,00002.016602,00001.215820,00001.455078,00001.855469,00002.373047,00002.143555,00002.299805,00002.724609,00001.938477,00001.357422,-00000.649414,-00000.068359,-00000.527344,-00000.034180,-00000.102539,-00000.146484
0000000002877,00002.006836,00001.215820,00001.445313,00001.840820,00002.368164,00002.138672,00002.299805,00002.714844,00001.928711,00001.342773,-00000.688477,-00000.068359,-00000.527344,-00000.024414,-00000.107422,-00000.146484
0000000002878,00001.997070,00001.215820,00001.430664,00001.821289,00002.363281,00002.133789,00002.299805,00002.714844,00001.918945,00001.337891,-00000.722656,-00000.068359,-00000.527344,-00000.024414,-00000.112305,-00000.146484
0000000002879,00001.972656,00001.215820,00001.425781,00001.811523,00002.353516,00002.128906,00002.294922,00002.705078,00001.918945,00001.337891,-00000.747070,-00000.083008,-00000.527344,-00000.024414,-00000.122070,-00000.146484
0000000002880,00001.943359,00001.215820,00001.401367,00001.796875,00002.353516,00002.128906,00002.294922,00002.700195,00001.909180,00001.333008,-00000.791016,-00000.092773,-00000.527344,-00000.024414,-00000.126953,-00000.141602
0000000002881,00001.938477,00001.220703,00001.357422,00001.743164,00002.343750,00002.128906,00002.285156,00002.700195,00001.865234,00001.318359,-00000.874023,-00000.107422,-00000.527344,-00000.014648,-00000.131836,-00000.151367
0000000002882,00001.923828,00001.225586,00001.323242,00001.635742,00002.333984,00002.124023,00002.280273,00002.690430,00001.884766,00001.318359,-00000.932617,-00000.117188,-00000.522461,00000.004883,-00000.136719,-00000.151367
0000000002883,00001.914063,00001.250000,00001.308594,00001.606445,00002.333984,00002.119141,00002.275391,00002.695313,00001.875000,00001.293945,-00000.991211,-00000.126953,-00000.522461,00000.019531,-00000.141602,-00000.141602
0000000002884,00001.904297,00001.264648,00001.298828,00001.582031,00002.329102,00002.114258,00002.270508,00002.690430,00001.870117,00001.274414,-00001.044922,-00000.136719,-00000.517578,00000.039063,-00000.146484,-00000.136719
0000000002885,00001.772461,00001.269531,00001.289063,00001.567383,00002.319336,00002.114258,00002.260742,00002.685547,00001.860352,00001.259766,-00001.103516,-00000.151367,-00000.522461,00000.048828,-00000.151367,-00000.131836
0000000002886,00001.762695,00001.269531,00001.274414,00001.542969,00002.304688,00002.109375,00002.241211,00002.675781,00001.860352,00001.230469,-00001.181641,-00000.166016,-00000.522461,00000.058594,-00000.136719,-00000.126953
0000000002887,00001.752930,00001.274414,00001.250000,00001.533203,00002.299805,00002.109375,00002.236328,00002.670898,00001.850586,00001.210938,-00001.245117,-00000.180664,-00000.527344,00000.063477,-00000.122070,-00000.131836
0000000002888,00001.752930,00001.279297,00001.230469,00001.523438,00002.294922,00002.104492,00002.231445,00002.666016,00001.845703,00001.186523,-00001.298828,-00000.195313,-00000.537109,00000.058594,-00000.112305,-00000.141602
0000000002889,00001.752930,00001.298828,00001.215820,00001.513672,00002.285156,00002.109375,00002.236328,00002.661133,00001.831055,00001.176758,-00001.347656,-00000.224609,-00000.541992,00000.058594,-00000.117188,-00000.136719
0000000002890,00001.748047,00001.303711,00001.196289,00001.503906,00002.280273,00002.104492,00002.236328,00002.656250,00001.835938,00001.166992,-00001.401367,-00000.239258,-00000.537109,00000.063477,-00000.117188,-00000.131836
0000000002891,00001.743164,00001.313477,00001.181641,00001.494141,00002.275391,00002.104492,00002.236328,00002.646484,00001.826172,00001.132813,-00001.459961,-00000.253906,-00000.537109,00000.073242,-00000.112305,-00000.136719
0000000002892,00001.743164,00001.318359,00001.171875,00001.484375,00002.265625,00002.104492,00002.236328,00002.641602,00001.826172,00001.118164,-00001.518555,-00000.268555,-00000.532227,00000.083008,-00000.102539,-00000.146484
0000000002893,00001.738281,00001.318359,00001.166992,00001.469727,00002.265625,00002.099609,00002.231445,00002.626953,00001.821289,00001.108398,-00001.562500,-00000.283203,-00000.532227,00000.092773,-00000.087891,-00000.146484
0000000002894,00001.733398,00001.328125,00001.162109,00001.469727,00002.260742,00002.094727,00002.236328,00002.617188,00001.811523,00001.093750,-00001.606445,-00000.288086,-00000.532227,00000.097656,-00000.087891,-00000.146484
0000000002895,00001.733398,00001.328125,00001.157227,00001.459961,00002.260742,00002.089844,00002.241211,00002.617188,00001.806641,00001.083984,-00001.645508,-00000.297852,-00000.527344,00000.102539,-00000.083008,-00000.141602
0000000002896,00001.738281,00001.337891,00001.152344,00001.455078,00002.255859,00002.094727,00002.246094,00002.617188,00001.801758,00001.079102,-00001.660156,-00000.297852,-00000.527344,00000.102539,-00000.083008,-00000.136719
0000000002897,00001.733398,00001.342773,00001.137695,00001.455078,00002.255859,00002.089844,00002.250977,00002.612305,00001.801758,00001.074219,-00001.689453,-00000.297852,-00000.527344,00000.102539,-00000.083008,-00000.126953
0000000002898,00001.733398,00001.347656,00001.137695,00001.450195,00002.250977,00002.089844,00002.250977,00002.607422,00001.796875,00001.064453,-00001.708984,-00000.302734,-00000.527344,00000.107422,-00000.083008,-00000.126953
0000000002899,00001.728516,00001.367188,00001.132813,00001.445313,00002.255859,00002.084961,00002.255859,00002.607422,00001.791992,00001.059570,-00001.728516,-00000.312500,-00000.527344,00000.112305,-00000.073242,-00000.131836
0000000002900,00001.728516,00001.367188,00001.127930,00001.440430,00002.250977,00002.089844,00002.250977,00002.607422,00001.787109,00001.049805,-00001.762695,-00000.322266,-00000.527344,00000.112305,-00000.068359,-00000.136719
0000000002901,00001.723633,00001.367188,00001.123047,00001.430664,00002.250977,00002.089844,00002.270508,00002.607422,00001.787109,00001.044922,-00001.782227,-00000.332031,-00000.522461,00000.112305,-00000.063477,-00000.136719
0000000002902,00001.723633,00001.367188,00001.118164,00001.435547,00002.246094,00002.089844,00002.275391,00002.607422,00001.782227,00001.040039,-00001.801758,-00000.341797,-00000.522461,00000.117188,-00000.068359,-00000.136719
0000000002903,00001.723633,00001.372070,00001.118164,00001.430664,00002.246094,00002.089844,00002.275391,00002.607422,00001.782227,00001.035156,-00001.806641,-00000.346680,-00000.522461,00000.112305,-00000.073242,-00000.131836
0000000002904,00001.728516,00001.376953,00001.118164,00001.430664,00002.250977,00002.089844,00002.280273,00002.602539,00001.782227,00001.035156,-00001.821289,-00000.351563,-00000.522461,00000.112305,-00000.068359,-00000.136719
0000000002905,00001.723633,00001.376953,00001.118164,00001.430664,00002.246094,00002.084961,00002.280273,00002.602539,00001.782227,00001.044922,-00001.840820,-00000.351563,-00000.527344,00000.112305,-00000.068359,-00000.136719
0000000002906,00001.723633,00001.376953,00001.118164,00001.430664,00002.241211,00002.089844,00002.280273,00002.602539,00001.767578,00001.030273,-00001.870117,-00000.356445,-00000.527344,00000.107422,-00000.058594,-00000.136719
0000000002907,00001.723633,00001.376953,00001.113281,00001.420898,00002.241211,00002.084961,00002.280273,00002.597656,00001.762695,00001.025391,-00001.899414,-00000.366211,-00000.527344,00000.107422,-00000.058594,-00000.141602
0000000002908,00001.723633,00001.372070,00001.118164,00001.411133,00002.241211,00002.089844,00002.280273,00002.597656,00001.757813,00001.025391,-00001.923828,-00000.380859,-00000.522461,00000.102539,-00000.053711,-00000.141602
0000000002909,00001.723633,00001.372070,00001.118164,00001.411133,00002.236328,00002.084961,00002.285156,00002.597656,00001.752930,00001.025391,-00001.933594,-00000.385742,-00000.522461,00000.107422,-00000.053711,-00000.131836
0000000002910,00001.723633,00001.372070,00001.123047,00001.406250,00002.216797,00002.089844,00002.285156,00002.597656,00001.748047,00001.020508,-00001.938477,-00000.390625,-00000.522461,00000.107422,-00000.058594,-00000.122070
0000000002911,00001.718750,00001.376953,00001.118164,00001.396484,00002.207031,00002.084961,00002.285156,00002.587891,00001.748047,00001.005859,-00001.948242,-00000.395508,-00000.527344,00000.107422,-00000.053711,-00000.122070
0000000002912,00001.723633,00001.376953,00001.118164,00001.396484,00002.207031,00002.084961,00002.285156,00002.592773,00001.743164,00001.005859,-00001.962891,-00000.400391,-00000.527344,00000.107422,-00000.048828,-00000.126953
0000000002913,00001.718750,00001.376953,00001.118164,00001.391602,00002.202148,00002.089844,00002.285156,00002.592773,00001.743164,00001.000977,-00001.982422,-00000.405273,-00000.527344,00000.112305,-00000.048828,-00000.126953
0000000002914,00001.713867,00001.372070,00001.118164,00001.386719,00002.197266,00002.080078,00002.285156,00002.583008,00001.733398,00000.996094,-00002.001953,-00000.415039,-00000.522461,00000.117188,-00000.053711,-00000.126953
0000000002915,00001.713867,00001.372070,00001.118164,00001.381836,00002.192383,00002.084961,00002.285156,00002.587891,00001.723633,00000.996094,-00002.016602,-00000.419922,-00000.527344,00000.122070,-00000.053711,-00000.122070
0000000002916,00001.713867,00001.372070,00001.118164,00001.381836,00002.187500,00002.080078,00002.285156,00002.583008,00001.723633,00000.996094,-00002.026367,-00000.419922,-00000.527344,00000.117188,-00000.063477,-00000.122070
0000000002917,00001.713867,00001.372070,00001.118164,00001.381836,00002.187500,00002.084961,00002.290039,00002.578125,00001.723633,00000.986328,-00002.031250,-00000.419922,-00000.532227,00000.112305,-00000.068359,-00000.112305
0000000002918,00001.708984,00001.372070,00001.118164,00001.381836,00002.187500,00002.080078,00002.290039,00002.578125,00001.728516,00000.981445,-00002.041016,-00000.429688,-00000.527344,00000.117188,-00000.068359,-00000.107422
0000000002919,00001.708984,00001.372070,00001.113281,00001.376953,00002.182617,00002.080078,00002.285156,00002.578125,00001.723633,00000.971680,-00002.041016,-00000.424805,-00000.527344,00000.122070,-00000.053711,-00000.107422
0000000002920,00001.708984,00001.372070,00001.113281,00001.372070,00002.182617,00002.075195,00002.290039,00002.583008,00001.728516,00000.971680,-00002.045898,-00000.424805,-00000.527344,00000.122070,-00000.053711,-00000.112305
0000000002921,00001.708984,00001.372070,00001.113281,00001.357422,00002.182617,00002.075195,00002.285156,00002.592773,00001.718750,00000.971680,-00002.055664,-00000.429688,-00000.532227,00000.122070,-00000.053711,-00000.112305
0000000002922,00001.708984,00001.372070,00001.118164,00001.342773,00002.187500,00002.075195,00002.285156,00002.592773,00001.713867,00000.966797,-00002.055664,-00000.434570,-00000.532227,00000.117188,-00000.043945,-00000.112305
0000000002923,00001.708984,00001.372070,00001.113281,00001.333008,00002.182617,00002.075195,00002.290039,00002.587891,00001.708984,00000.957031,-00002.065430,-00000.434570,-00000.532227,00000.117188,-00000.039063,-00000.107422
0000000002924,00001.704102,00001.376953,00001.113281,00001.337891,00002.182617,00002.075195,00002.290039,00002.568359,00001.713867,00000.937500,-00002.075195,-00000.429688,-00000.532227,00000.117188,-00000.043945,-00000.102539
0000000002925,00001.704102,00001.372070,00001.113281,00001.313477,00002.177734,00002.070313,00002.290039,00002.558594,00001.708984,00000.908203,-00002.089844,-00000.424805,-00000.527344,00000.122070,-00000.039063,-00000.097656
0000000002926,00001.699219,00001.352539,00001.108398,00001.298828,00002.177734,00002.065430,00002.290039,00002.553711,00001.704102,00000.883789,-00002.099609,-00000.424805,-00000.527344,00000.126953,-00000.039063,-00000.097656
0000000002927,00001.694336,00001.347656,00001.108398,00001.293945,00002.177734,00002.065430,00002.290039,00002.543945,00001.704102,00000.883789,-00002.094727,-00000.429688,-00000.527344,00000.126953,-00000.034180,-00000.102539
0000000002928,00001.689453,00001.347656,00001.108398,00001.289063,00002.172852,00002.065430,00002.290039,00002.539063,00001.699219,00000.864258,-00002.094727,-00000.429688,-00000.532227,00000.126953,-00000.034180,-00000.102539
0000000002929,00001.684570,00001.347656,00001.103516,00001.284180,00002.172852,00002.060547,00002.290039,00002.534180,00001.694336,00000.859375,-00002.099609,-00000.429688,-00000.532227,00000.126953,-00000.039063,-00000.102539
0000000002930,00001.684570,00001.347656,00001.103516,00001.279297,00002.167969,00002.060547,00002.290039,00002.529297,00001.694336,00000.854492,-00002.099609,-00000.429688,-00000.527344,00000.126953,-00000.039063,-00000.097656
0000000002931,00001.684570,00001.347656,00001.103516,00001.269531,00002.167969,00002.055664,00002.290039,00002.524414,00001.689453,00000.854492,-00002.104492,-00000.429688,-00000.532227,00000.126953,-00000.039063,-00000.097656
0000000002932,00001.689453,00001.342773,00001.103516,00001.269531,00002.167969,00002.060547,00002.290039,00002.529297,00001.689453,00000.849609,-00002.109375,-00000.429688,-00000.532227,00000.126953,-00000.039063,-00000.102539
0000000002933,00001.684570,00001.347656,00001.098633,00001.269531,00002.167969,00002.060547,00002.290039,00002.529297,00001.694336,00000.849609,-00002.109375,-00000.429688,-00000.532227,00000.126953,-00000.043945,-00000.102539
0000000002934,00001.684570,00001.347656,00001.098633,00001.269531,00002.167969,00002.055664,00002.290039,00002.524414,00001.689453,00000.844727,-00002.128906,-00000.424805,-00000.527344,00000.136719,-00000.043945,-00000.097656
0000000002935,00001.689453,00001.342773,00001.108398,00001.259766,00002.167969,00002.060547,00002.285156,00002.529297,00001.689453,00000.844727,-00002.143555,-00000.429688,-00000.522461,00000.141602,-00000.043945,-00000.102539
0000000002936,00001.684570,00001.342773,00001.103516,00001.259766,00002.167969,00002.055664,00002.290039,00002.524414,00001.689453,00000.839844,-00002.153320,-00000.429688,-00000.517578,00000.146484,-00000.043945,-00000.102539
0000000002937,00001.684570,00001.342773,00001.103516,00001.254883,00002.172852,00002.055664,00002.285156,00002.524414,00001.689453,00000.839844,-00002.163086,-00000.429688,-00000.517578,00000.151367,-00000.048828,-00000.097656
0000000002938,00001.689453,00001.342773,00001.103516,00001.254883,00002.163086,00002.055664,00002.285156,00002.519531,00001.684570,00000.834961,-00002.167969,-00000.429688,-00000.517578,00000.146484,-00000.053711,-00000.092773
0000000002939,00001.684570,00001.347656,00001.103516,00001.254883,00002.172852,00002.050781,00002.290039,00002.514648,00001.689453,00000.834961,-00002.158203,-00000.434570,-00000.522461,00000.146484,-00000.053711,-00000.097656
0000000002940,00001.684570,00001.342773,00001.103516,00001.254883,00002.167969,00002.055664,00002.290039,00002.514648,00001.689453,00000.834961,-00002.158203,-00000.439453,-00000.522461,00000.156250,-00000.048828,-00000.097656
0000000002941,00001.689453,00001.342773,00001.103516,00001.250000,00002.167969,00002.055664,00002.285156,00002.514648,00001.684570,00000.830078,-00002.153320,-00000.439453,-00000.517578,00000.156250,-00000.039063,-00000.097656
0000000002942,00001.684570,00001.342773,00001.103516,00001.250000,00002.167969,00002.055664,00002.285156,00002.509766,00001.684570,00000.820313,-00002.163086,-00000.439453,-00000.512695,00000.161133,-00000.039063,-00000.102539
0000000002943,00001.689453,00001.342773,00001.103516,00001.245117,00002.167969,00002.055664,00002.285156,00002.514648,00001.679688,00000.825195,-00002.172852,-00000.439453,-00000.512695,00000.166016,-00000.034180,-00000.102539
0000000002944,00001.684570,00001.347656,00001.098633,00001.245117,00002.167969,00002.050781,00002.290039,00002.509766,00001.684570,00000.820313,-00002.177734,-00000.439453,-00000.507813,00000.161133,-00000.034180,-00000.102539
0000000002945,00001.684570,00001.342773,00001.098633,00001.245117,00002.167969,00002.055664,00002.285156,00002.514648,00001.684570,00000.820313,-00002.182617,-00000.439453,-00000.507813,00000.161133,-00000.043945,-00000.102539
0000000002946,00001.689453,00001.342773,00001.098633,00001.240234,00002.167969,00002.055664,00002.290039,00002.514648,00001.679688,00000.815430,-00002.182617,-00000.434570,-00000.507813,00000.166016,-00000.048828,-00000.102539
0000000002947,00001.684570,00001.347656,00001.098633,00001.240234,00002.172852,00002.055664,00002.290039,00002.519531,00001.684570,00000.791016,-00002.192383,-00000.434570,-00000.502930,00000.170898,-00000.043945,-00000.102539
0000000002948,00001.684570,00001.347656,00001.098633,00001.240234,00002.172852,00002.055664,00002.290039,00002.514648,00001.684570,00000.771484,-00002.211914,-00000.444336,-00000.502930,00000.180664,-00000.039063,-00000.107422
0000000002949,00001.684570,00001.347656,00001.093750,00001.240234,00002.167969,00002.055664,00002.290039,00002.514648,00001.684570,00000.756836,-00002.216797,-00000.449219,-00000.502930,00000.180664,-00000.034180,-00000.112305
0000000002950,00001.684570,00001.347656,00001.098633,00001.235352,00002.172852,00002.055664,00002.294922,00002.519531,00001.679688,00000.756836,-00002.216797,-00000.444336,-00000.502930,00000.185547,-00000.034180,-00000.107422
0000000002951,00001.689453,00001.347656,00001.098633,00001.240234,00002.172852,00002.060547,00002.290039,00002.514648,00001.684570,00000.756836,-00002.211914,-00000.444336,-00000.502930,00000.185547,-00000.034180,-00000.112305
0000000002952,00001.684570,00001.347656,00001.098633,00001.240234,00002.172852,00002.055664,00002.290039,00002.519531,00001.684570,00000.761719,-00002.202148,-00000.444336,-00000.507813,00000.185547,-00000.034180,-00000.112305
0000000002953,00001.689453,00001.347656,00001.098633,00001.240234,00002.167969,00002.060547,00002.290039,00002.519531,00001.679688,00000.761719,-00002.207031,-00000.439453,-00000.507813,00000.185547,-00000.034180,-00000.112305
0000000002954,00001.689453,00001.347656,00001.098633,00001.235352,00002.177734,00002.055664,00002.290039,00002.519531,00001.679688,00000.751953,-00002.211914,-00000.439453,-00000.502930,00000.190430,-00000.034180,-00000.112305
0000000002955,00001.689453,00001.352539,00001.098633,00001.240234,00002.177734,00002.055664,00002.294922,00002.514648,00001.684570,00000.751953,-00002.216797,-00000.439453,-00000.493164,00000.195313,-00000.034180,-00000.112305
0000000002956,00001.689453,00001.347656,00001.098633,00001.235352,00002.177734,00002.055664,00002.294922,00002.514648,00001.679688,00000.742188,-00002.226563,-00000.444336,-00000.493164,00000.200195,-00000.039063,-00000.107422
0000000002957,00001.689453,00001.347656,00001.098633,00001.235352,00002.177734,00002.055664,00002.294922,00002.519531,00001.679688,00000.742188,-00002.231445,-00000.444336,-00000.493164,00000.200195,-00000.039063,-00000.107422
0000000002958,00001.694336,00001.352539,00001.098633,00001.235352,00002.172852,00002.060547,00002.294922,00002.529297,00001.679688,00000.742188,-00002.226563,-00000.444336,-00000.498047,00000.200195,-00000.039063,-00000.107422
0000000002959,00001.694336,00001.372070,00001.098633,00001.240234,00002.177734,00002.060547,00002.294922,00002.524414,00001.684570,00000.742188,-00002.207031,-00000.444336,-00000.502930,00000.200195,-00000.034180,-00000.112305
0000000002960,00001.689453,00001.376953,00001.098633,00001.240234,00002.187500,00002.060547,00002.299805,00002.524414,00001.684570,00000.737305,-00002.207031,-00000.449219,-00000.498047,00000.209961,-00000.029297,-00000.112305
0000000002961,00001.689453,00001.372070,00001.093750,00001.230469,00002.182617,00002.055664,00002.290039,00002.529297,00001.679688,00000.737305,-00002.226563,-00000.454102,-00000.498047,00000.214844,-00000.034180,-00000.112305
0000000002962,00001.694336,00001.372070,00001.098633,00001.235352,00002.187500,00002.065430,00002.294922,00002.529297,00001.684570,00000.742188,-00002.226563,-00000.454102,-00000.498047,00000.219727,-00000.039063,-00000.112305
0000000002963,00001.694336,00001.372070,00001.103516,00001.235352,00002.207031,00002.065430,00002.294922,00002.534180,00001.684570,00000.742188,-00002.211914,-00000.454102,-00000.498047,00000.219727,-00000.039063,-00000.107422
0000000002964,00001.694336,00001.372070,00001.103516,00001.240234,00002.216797,00002.065430,00002.294922,00002.539063,00001.684570,00000.756836,-00002.182617,-00000.454102,-00000.507813,00000.214844,-00000.043945,-00000.112305
0000000002965,00001.694336,00001.381836,00001.098633,00001.235352,00002.221680,00002.060547,00002.299805,00002.534180,00001.689453,00000.756836,-00002.172852,-00000.454102,-00000.512695,00000.205078,-00000.043945,-00000.122070
0000000002966,00001.694336,00001.381836,00001.098633,00001.240234,00002.216797,00002.065430,00002.294922,00002.539063,00001.689453,00000.761719,-00002.172852,-00000.454102,-00000.507813,00000.200195,-00000.034180,-00000.126953
0000000002967,00001.694336,00001.386719,00001.098633,00001.240234,00002.221680,00002.065430,00002.299805,00002.539063,00001.689453,00000.761719,-00002.177734,-00000.454102,-00000.507813,00000.200195,-00000.034180,-00000.126953
0000000002968,00001.694336,00001.386719,00001.098633,00001.240234,00002.221680,00002.065430,00002.294922,00002.543945,00001.689453,00000.761719,-00002.167969,-00000.458984,-00000.512695,00000.195313,-00000.034180,-00000.126953
0000000002969,00001.699219,00001.386719,00001.098633,00001.240234,00002.226563,00002.065430,00002.294922,00002.543945,00001.689453,00000.766602,-00002.167969,-00000.458984,-00000.507813,00000.200195,-00000.043945,-00000.122070
0000000002970,00001.694336,00001.386719,00001.103516,00001.240234,00002.226563,00002.065430,00002.299805,00002.543945,00001.694336,00000.766602,-00002.167969,-00000.458984,-00000.507813,00000.200195,-00000.043945,-00000.117188
0000000002971,00001.694336,00001.391602,00001.103516,00001.240234,00002.231445,00002.065430,00002.299805,00002.524414,00001.694336,00000.766602,-00002.158203,-00000.458984,-00000.512695,00000.200195,-00000.043945,-00000.122070
0000000002972,00001.694336,00001.391602,00001.103516,00001.240234,00002.231445,00002.065430,00002.299805,00002.524414,00001.689453,00000.766602,-00002.148438,-00000.458984,-00000.512695,00000.200195,-00000.043945,-00000.122070
0000000002973,00001.694336,00001.386719,00001.103516,00001.240234,00002.231445,00002.060547,00002.299805,00002.519531,00001.689453,00000.766602,-00002.138672,-00000.458984,-00000.517578,00000.195313,-00000.039063,-00000.126953
0000000002974,00001.694336,00001.386719,00001.103516,00001.235352,00002.226563,00002.065430,00002.294922,00002.519531,00001.684570,00000.761719,-00002.128906,-00000.458984,-00000.522461,00000.195313,-00000.034180,-00000.126953
0000000002975,00001.689453,00001.386719,00001.103516,00001.230469,00002.226563,00002.060547,00002.294922,00002.514648,00001.684570,00000.761719,-00002.124023,-00000.463867,-00000.522461,00000.200195,-00000.029297,-00000.131836
0000000002976,00001.694336,00001.381836,00001.108398,00001.225586,00002.221680,00002.065430,00002.290039,00002.509766,00001.684570,00000.761719,-00002.124023,-00000.463867,-00000.517578,00000.200195,-00000.034180,-00000.126953
0000000002977,00001.689453,00001.381836,00001.103516,00001.225586,00002.221680,00002.060547,00002.290039,00002.509766,00001.679688,00000.761719,-00002.124023,-00000.468750,-00000.522461,00000.195313,-00000.039063,-00000.122070
0000000002978,00001.689453,00001.376953,00001.108398,00001.225586,00002.221680,00002.060547,00002.290039,00002.514648,00001.679688,00000.766602,-00002.119141,-00000.468750,-00000.522461,00000.195313,-00000.048828,-00000.117188
0000000002979,00001.689453,00001.381836,00001.103516,00001.225586,00002.221680,00002.055664,00002.294922,00002.509766,00001.679688,00000.766602,-00002.119141,-00000.468750,-00000.532227,00000.185547,-00000.053711,-00000.117188
0000000002980,00001.689453,00001.381836,00001.108398,00001.225586,00002.221680,00002.060547,00002.290039,00002.514648,00001.679688,00000.766602,-00002.114258,-00000.468750,-00000.537109,00000.180664,-00000.043945,-00000.122070
0000000002981,00001.689453,00001.376953,00001.113281,00001.225586,00002.221680,00002.060547,00002.290039,00002.509766,00001.679688,00000.766602,-00002.114258,-00000.473633,-00000.541992,00000.180664,-00000.039063,-00000.122070
0000000002982,00001.689453,00001.381836,00001.108398,00001.220703,00002.221680,00002.060547,00002.294922,00002.509766,00001.679688,00000.761719,-00002.124023,-00000.473633,-00000.541992,00000.180664,-00000.029297,-00000.126953
0000000002983,00001.689453,00001.381836,00001.108398,00001.220703,00002.221680,00002.060547,00002.294922,00002.509766,00001.679688,00000.766602,-00002.128906,-00000.478516,-00000.537109,00000.185547,-00000.029297,-00000.122070
0000000002984,00001.689453,00001.381836,00001.103516,00001.220703,00002.221680,00002.060547,00002.294922,00002.509766,00001.684570,00000.766602,-00002.128906,-00000.488281,-00000.541992,00000.185547,-00000.034180,-00000.122070
0000000002985,00001.689453,00001.381836,00001.108398,00001.220703,00002.226563,00002.060547,00002.294922,00002.514648,00001.684570,00000.766602,-00002.128906,-00000.493164,-00000.541992,00000.185547,-00000.039063,-00000.117188
0000000002986,00001.689453,00001.381836,00001.113281,00001.220703,00002.221680,00002.060547,00002.290039,00002.509766,00001.679688,00000.766602,-00002.124023,-00000.493164,-00000.541992,00000.185547,-00000.034180,-00000.117188
0000000002987,00001.694336,00001.381836,00001.108398,00001.220703,00002.221680,00002.065430,00002.294922,00002.509766,00001.679688,00000.771484,-00002.114258,-00000.493164,-00000.546875,00000.180664,-00000.034180,-00000.122070
0000000002988,00001.694336,00001.386719,00001.108398,00001.225586,00002.231445,00002.065430,00002.299805,00002.509766,00001.684570,00000.781250,-00002.104492,-00000.488281,-00000.551758,00000.175781,-00000.029297,-00000.122070
0000000002989,00001.689453,00001.381836,00001.113281,00001.220703,00002.226563,00002.060547,00002.294922,00002.509766,00001.684570,00000.781250,-00002.094727,-00000.488281,-00000.556641,00000.170898,-00000.029297,-00000.117188
0000000002990,00001.694336,00001.386719,00001.113281,00001.220703,00002.231445,00002.065430,00002.294922,00002.514648,00001.684570,00000.786133,-00002.094727,-00000.493164,-00000.566406,00000.166016,-00000.029297,-00000.112305
0000000002991,00001.694336,00001.386719,00001.113281,00001.220703,00002.221680,00002.060547,00002.294922,00002.509766,00001.684570,00000.791016,-00002.104492,-00000.502930,-00000.566406,00000.170898,-00000.034180,-00000.112305
0000000002992,00001.694336,00001.386719,00001.113281,00001.220703,00002.226563,00002.065430,00002.294922,00002.514648,00001.679688,00000.791016,-00002.114258,-00000.502930,-00000.566406,00000.170898,-00000.034180,-00000.117188
0000000002993,00001.689453,00001.386719,00001.113281,00001.215820,00002.226563,00002.060547,00002.299805,00002.509766,00001.679688,00000.786133,-00002.138672,-00000.502930,-00000.566406,00000.166016,-00000.039063,-00000.112305
0000000002994,00001.689453,00001.386719,00001.113281,00001.210938,00002.221680,00002.060547,00002.294922,00002.514648,00001.679688,00000.786133,-00002.148438,-00000.502930,-00000.566406,00000.170898,-00000.034180,-00000.112305
0000000002995,00001.689453,00001.391602,00001.108398,00001.206055,00002.216797,00002.060547,00002.299805,00002.509766,00001.679688,00000.771484,-00002.172852,-00000.493164,-00000.566406,00000.170898,-00000.034180,-00000.107422
0000000002996,00001.694336,00001.391602,00001.108398,00001.206055,00002.216797,00002.065430,00002.294922,00002.509766,00001.660156,00000.766602,-00002.172852,-00000.488281,-00000.571289,00000.170898,-00000.039063,-00000.102539
0000000002997,00001.694336,00001.391602,00001.113281,00001.206055,00002.216797,00002.065430,00002.294922,00002.514648,00001.655273,00000.771484,-00002.172852,-00000.488281,-00000.566406,00000.166016,-00000.039063,-00000.102539
0000000002998,00001.694336,00001.391602,00001.113281,00001.206055,00002.216797,00002.065430,00002.294922,00002.514648,00001.665039,00000.766602,-00002.163086,-00000.493164,-00000.566406,00000.161133,-00000.029297,-00000.107422
0000000002999,00001.694336,00001.396484,00001.113281,00001.210938,00002.221680,00002.060547,00002.299805,00002.514648,00001.669922,00000.761719,-00002.158203,-00000.493164,-00000.561523,00000.166016,-00000.034180,-00000.107422
0000000003000,00001.699219,00001.396484,00001.113281,00001.210938,00002.216797,00002.060547,00002.299805,00002.519531,00001.669922,00000.761719,-00002.158203,-00000.478516,-00000.556641,00000.166016,-00000.034180,-00000.102539
0000000003001,00001.699219,00001.396484,00001.113281,00001.215820,00002.221680,00002.060547,00002.304688,00002.524414,00001.674805,00000.756836,-00002.153320,-00000.463867,-00000.546875,00000.161133,-00000.029297,-00000.092773
0000000003002,00001.704102,00001.391602,00001.113281,00001.220703,00002.221680,00002.060547,00002.304688,00002.524414,00001.669922,00000.756836,-00002.148438,-00000.444336,-00000.541992,00000.151367,-00000.034180,-00000.087891
0000000003003,00001.699219,00001.391602,00001.113281,00001.220703,00002.216797,00002.065430,00002.304688,00002.529297,00001.665039,00000.747070,-00002.153320,-00000.434570,-00000.532227,00000.146484,-00000.039063,-00000.092773
0000000003004,00001.704102,00001.396484,00001.113281,00001.220703,00002.221680,00002.060547,00002.309570,00002.524414,00001.665039,00000.742188,-00002.163086,-00000.434570,-00000.532227,00000.146484,-00000.034180,-00000.092773
0000000003005,00001.704102,00001.396484,00001.108398,00001.215820,00002.221680,00002.060547,00002.304688,00002.524414,00001.655273,00000.737305,-00002.177734,-00000.434570,-00000.532227,00000.146484,-00000.039063,-00000.097656
0000000003006,00001.708984,00001.391602,00001.108398,00001.215820,00002.216797,00002.060547,00002.304688,00002.529297,00001.665039,00000.732422,-00002.192383,-00000.439453,-00000.532227,00000.151367,-00000.043945,-00000.102539
0000000003007,00001.708984,00001.391602,00001.103516,00001.215820,00002.216797,00002.065430,00002.304688,00002.529297,00001.665039,00000.727539,-00002.192383,-00000.439453,-00000.522461,00000.161133,-00000.043945,-00000.102539
0000000003008,00001.704102,00001.391602,00001.103516,00001.215820,00002.216797,00002.055664,00002.304688,00002.524414,00001.665039,00000.727539,-00002.187500,-00000.434570,-00000.522461,00000.156250,-00000.039063,-00000.112305
0000000003009,00001.704102,00001.396484,00001.103516,00001.210938,00002.221680,00002.060547,00002.304688,00002.524414,00001.665039,00000.722656,-00002.187500,-00000.429688,-00000.522461,00000.161133,-00000.039063,-00000.117188
0000000003010,00001.704102,00001.391602,00001.103516,00001.206055,00002.221680,00002.060547,00002.304688,00002.524414,00001.645508,00000.722656,-00002.197266,-00000.429688,-00000.517578,00000.170898,-00000.034180,-00000.117188
0000000003011,00001.699219,00001.386719,00001.098633,00001.186523,00002.192383,00002.055664,00002.299805,00002.524414,00001.660156,00000.708008,-00002.202148,-00000.439453,-00000.512695,00000.175781,-00000.039063,-00000.122070
0000000003012,00001.694336,00001.362305,00001.093750,00001.166992,00002.187500,00002.055664,00002.294922,00002.514648,00001.660156,00000.703125,-00002.177734,-00000.439453,-00000.517578,00000.175781,-00000.048828,-00000.117188
0000000003013,00001.689453,00001.357422,00001.093750,00001.157227,00002.182617,00002.050781,00002.299805,00002.509766,00001.655273,00000.703125,-00002.192383,-00000.434570,-00000.517578,00000.175781,-00000.043945,-00000.126953
0000000003014,00001.689453,00001.357422,00001.093750,00001.147461,00002.182617,00002.055664,00002.294922,00002.509766,00001.650391,00000.703125,-00002.211914,-00000.434570,-00000.517578,00000.180664,-00000.043945,-00000.131836
0000000003015,00001.684570,00001.357422,00001.093750,00001.142578,00002.182617,00002.050781,00002.294922,00002.504883,00001.650391,00000.693359,-00002.207031,-00000.434570,-00000.517578,00000.180664,-00000.043945,-00000.131836
0000000003016,00001.684570,00001.357422,00001.093750,00001.147461,00002.177734,00002.055664,00002.299805,00002.504883,00001.650391,00000.698242,-00002.177734,-00000.434570,-00000.517578,00000.180664,-00000.043945,-00000.141602
0000000003017,00001.684570,00001.357422,00001.093750,00001.147461,00002.182617,00002.055664,00002.299805,00002.509766,00001.655273,00000.712891,-00002.148438,-00000.434570,-00000.527344,00000.166016,-00000.063477,-00000.146484
0000000003018,00001.694336,00001.376953,00001.098633,00001.152344,00002.192383,00002.060547,00002.294922,00002.514648,00001.645508,00000.742188,-00002.124023,-00000.429688,-00000.532227,00000.156250,-00000.073242,-00000.151367
0000000003019,00001.694336,00001.376953,00001.108398,00001.166992,00002.197266,00002.055664,00002.294922,00002.509766,00001.660156,00000.815430,-00002.075195,-00000.390625,-00000.537109,00000.146484,-00000.107422,-00000.156250
0000000003020,00001.684570,00001.381836,00001.113281,00001.181641,00002.187500,00002.055664,00002.294922,00002.504883,00001.665039,00000.810547,-00002.084961,-00000.380859,-00000.537109,00000.156250,-00000.092773,-00000.156250
0000000003021,00001.689453,00001.381836,00001.113281,00001.186523,00002.187500,00002.060547,00002.294922,00002.509766,00001.665039,00000.810547,-00002.084961,-00000.380859,-00000.537109,00000.161133,-00000.087891,-00000.156250
0000000003022,00001.689453,00001.376953,00001.113281,00001.181641,00002.187500,00002.055664,00002.294922,00002.509766,00001.665039,00000.810547,-00002.080078,-00000.395508,-00000.537109,00000.161133,-00000.078125,-00000.156250
0000000003023,00001.689453,00001.381836,00001.113281,00001.181641,00002.182617,00002.055664,00002.294922,00002.504883,00001.665039,00000.786133,-00002.084961,-00000.405273,-00000.537109,00000.161133,-00000.068359,-00000.156250
0000000003024,00001.694336,00001.381836,00001.113281,00001.181641,00002.187500,00002.060547,00002.294922,00002.504883,00001.665039,00000.786133,-00002.089844,-00000.400391,-00000.541992,00000.156250,-00000.063477,-00000.151367
0000000003025,00001.689453,00001.381836,00001.113281,00001.176758,00002.187500,00002.055664,00002.299805,00002.509766,00001.669922,00000.781250,-00002.114258,-00000.415039,-00000.556641,00000.146484,-00000.087891,-00000.141602
0000000003026,00001.689453,00001.381836,00001.113281,00001.171875,00002.182617,00002.055664,00002.299805,00002.504883,00001.665039,00000.761719,-00002.133789,-00000.415039,-00000.541992,00000.166016,-00000.053711,-00000.151367
0000000003027,00001.689453,00001.386719,00001.113281,00001.166992,00002.187500,00002.055664,00002.299805,00002.504883,00001.665039,00000.756836,-00002.143555,-00000.419922,-00000.541992,00000.161133,-00000.048828,-00000.156250
0000000003028,00001.694336,00001.381836,00001.108398,00001.171875,00002.182617,00002.055664,00002.294922,00002.509766,00001.665039,00000.756836,-00002.158203,-00000.419922,-00000.537109,00000.161133,-00000.058594,-00000.141602
0000000003029,00001.694336,00001.391602,00001.108398,00001.171875,00002.182617,00002.055664,00002.299805,00002.509766,00001.665039,00000.756836,-00002.158203,-00000.429688,-00000.541992,00000.156250,-00000.073242,-00000.131836
0000000003030,00001.699219,00001.391602,00001.108398,00001.171875,00002.187500,00002.060547,00002.299805,00002.509766,00001.665039,00000.756836,-00002.167969,-00000.434570,-00000.541992,00000.161133,-00000.063477,-00000.141602
0000000003031,00001.694336,00001.391602,00001.103516,00001.162109,00002.187500,00002.050781,00002.299805,00002.509766,00001.665039,00000.747070,-00002.177734,-00000.444336,-00000.551758,00000.156250,-00000.063477,-00000.141602
0000000003032,00001.694336,00001.391602,00001.093750,00001.157227,00002.182617,00002.050781,00002.299805,00002.504883,00001.655273,00000.727539,-00002.192383,-00000.449219,-00000.556641,00000.151367,-00000.073242,-00000.131836
0000000003033,00001.694336,00001.386719,00001.093750,00001.137695,00002.172852,00002.055664,00002.294922,00002.509766,00001.655273,00000.717773,-00002.202148,-00000.449219,-00000.546875,00000.156250,-00000.063477,-00000.141602
0000000003034,00001.694336,00001.391602,00001.093750,00001.137695,00002.177734,00002.050781,00002.299805,00002.504883,00001.655273,00000.712891,-00002.192383,-00000.458984,-00000.546875,00000.161133,-00000.063477,-00000.146484
0000000003035,00001.699219,00001.386719,00001.093750,00001.132813,00002.182617,00002.050781,00002.299805,00002.509766,00001.650391,00000.712891,-00002.216797,-00000.468750,-00000.546875,00000.151367,-00000.068359,-00000.146484
0000000003036,00001.699219,00001.386719,00001.093750,00001.123047,00002.177734,00002.050781,00002.294922,00002.509766,00001.645508,00000.712891,-00002.231445,-00000.473633,-00000.546875,00000.146484,-00000.068359,-00000.161133
0000000003037,00001.699219,00001.386719,00001.088867,00001.108398,00002.177734,00002.045898,00002.299805,00002.514648,00001.645508,00000.708008,-00002.250977,-00000.478516,-00000.546875,00000.151367,-00000.063477,-00000.161133
0000000003038,00001.694336,00001.386719,00001.088867,00001.108398,00002.177734,00002.050781,00002.299805,00002.514648,00001.645508,00000.712891,-00002.241211,-00000.478516,-00000.541992,00000.156250,-00000.063477,-00000.156250
0000000003039,00001.694336,00001.391602,00001.088867,00001.127930,00002.177734,00002.050781,00002.304688,00002.509766,00001.650391,00000.712891,-00002.226563,-00000.488281,-00000.541992,00000.146484,-00000.068359,-00000.156250
0000000003040,00001.694336,00001.391602,00001.088867,00001.123047,00002.177734,00002.055664,00002.299805,00002.519531,00001.650391,00000.712891,-00002.226563,-00000.488281,-00000.537109,00000.146484,-00000.063477,-00000.156250
0000000003041,00001.694336,00001.386719,00001.088867,00001.103516,00002.177734,00002.050781,00002.294922,00002.509766,00001.645508,00000.712891,-00002.216797,-00000.488281,-00000.541992,00000.136719,-00000.063477,-00000.161133
0000000003042,00001.694336,00001.376953,00001.088867,00001.098633,00002.172852,00002.050781,00002.294922,00002.514648,00001.645508,00000.708008,-00002.216797,-00000.498047,-00000.546875,00000.141602,-00000.063477,-00000.161133
0000000003043,00001.689453,00001.357422,00001.083984,00001.093750,00002.172852,00002.050781,00002.290039,00002.504883,00001.640625,00000.708008,-00002.211914,-00000.498047,-00000.541992,00000.146484,-00000.058594,-00000.161133
0000000003044,00001.689453,00001.362305,00001.083984,00001.098633,00002.177734,00002.050781,00002.299805,00002.500000,00001.645508,00000.708008,-00002.207031,-00000.498047,-00000.541992,00000.151367,-00000.058594,-00000.161133
0000000003045,00001.689453,00001.357422,00001.079102,00001.093750,00002.167969,00002.050781,00002.294922,00002.500000,00001.645508,00000.708008,-00002.221680,-00000.493164,-00000.546875,00000.151367,-00000.058594,-00000.156250
0000000003046,00001.689453,00001.357422,00001.083984,00001.098633,00002.172852,00002.050781,00002.294922,00002.500000,00001.645508,00000.712891,-00002.211914,-00000.483398,-00000.546875,00000.141602,-00000.053711,-00000.156250
0000000003047,00001.694336,00001.357422,00001.083984,00001.098633,00002.172852,00002.050781,00002.294922,00002.504883,00001.645508,00000.712891,-00002.207031,-00000.483398,-00000.546875,00000.136719,-00000.053711,-00000.156250
0000000003048,00001.689453,00001.357422,00001.083984,00001.098633,00002.172852,00002.050781,00002.294922,00002.504883,00001.645508,00000.708008,-00002.197266,-00000.483398,-00000.541992,00000.131836,-00000.053711,-00000.156250
0000000003049,00001.694336,00001.357422,00001.083984,00001.113281,00002.172852,00002.050781,00002.294922,00002.504883,00001.645508,00000.712891,-00002.177734,-00000.478516,-00000.541992,00000.117188,-00000.048828,-00000.151367
0000000003050,00001.694336,00001.357422,00001.083984,00001.118164,00002.177734,00002.055664,00002.294922,00002.509766,00001.645508,00000.717773,-00002.177734,-00000.473633,-00000.546875,00000.112305,-00000.043945,-00000.151367
0000000003051,00001.694336,00001.357422,00001.083984,00001.103516,00002.172852,00002.055664,00002.294922,00002.509766,00001.645508,00000.717773,-00002.177734,-00000.478516,-00000.551758,00000.112305,-00000.058594,-00000.151367
0000000003052,00001.689453,00001.362305,00001.083984,00001.103516,00002.177734,00002.050781,00002.299805,00002.509766,00001.645508,00000.717773,-00002.167969,-00000.483398,-00000.541992,00000.117188,-00000.058594,-00000.151367
0000000003053,00001.694336,00001.357422,00001.083984,00001.098633,00002.177734,00002.050781,00002.299805,00002.509766,00001.645508,00000.717773,-00002.167969,-00000.478516,-00000.546875,00000.122070,-00000.053711,-00000.156250
0000000003054,00001.694336,00001.357422,00001.083984,00001.098633,00002.182617,00002.050781,00002.299805,00002.509766,00001.645508,00000.717773,-00002.172852,-00000.478516,-00000.551758,00000.122070,-00000.053711,-00000.161133
0000000003055,00001.689453,00001.362305,00001.083984,00001.103516,00002.182617,00002.050781,00002.299805,00002.509766,00001.640625,00000.717773,-00002.153320,-00000.488281,-00000.556641,00000.122070,-00000.068359,-00000.151367
0000000003056,00001.694336,00001.357422,00001.088867,00001.103516,00002.182617,00002.055664,00002.294922,00002.514648,00001.640625,00000.722656,-00002.153320,-00000.488281,-00000.556641,00000.122070,-00000.063477,-00000.156250
0000000003057,00001.694336,00001.357422,00001.088867,00001.103516,00002.177734,00002.055664,00002.294922,00002.509766,00001.640625,00000.722656,-00002.163086,-00000.488281,-00000.551758,00000.117188,-00000.053711,-00000.161133
0000000003058,00001.694336,00001.357422,00001.088867,00001.118164,00002.177734,00002.055664,00002.299805,00002.514648,00001.640625,00000.722656,-00002.148438,-00000.478516,-00000.546875,00000.117188,-00000.053711,-00000.166016
0000000003059,00001.694336,00001.357422,00001.088867,00001.118164,00002.182617,00002.055664,00002.294922,00002.514648,00001.635742,00000.732422,-00002.138672,-00000.488281,-00000.541992,00000.122070,-00000.053711,-00000.161133
0000000003060,00001.694336,00001.357422,00001.088867,00001.118164,00002.182617,00002.055664,00002.294922,00002.514648,00001.630859,00000.727539,-00002.138672,-00000.493164,-00000.541992,00000.122070,-00000.053711,-00000.161133
0000000003061,00001.699219,00001.381836,00001.088867,00001.118164,00002.187500,00002.060547,00002.294922,00002.514648,00001.630859,00000.727539,-00002.148438,-00000.488281,-00000.541992,00000.126953,-00000.048828,-00000.161133
0000000003062,00001.694336,00001.376953,00001.088867,00001.118164,00002.187500,00002.060547,00002.294922,00002.514648,00001.630859,00000.727539,-00002.172852,-00000.483398,-00000.537109,00000.131836,-00000.063477,-00000.161133
0000000003063,00001.694336,00001.381836,00001.083984,00001.113281,00002.187500,00002.055664,00002.299805,00002.514648,00001.625977,00000.722656,-00002.182617,-00000.483398,-00000.537109,00000.131836,-00000.058594,-00000.156250
0000000003064,00001.694336,00001.381836,00001.083984,00001.113281,00002.187500,00002.055664,00002.294922,00002.514648,00001.625977,00000.717773,-00002.182617,-00000.483398,-00000.541992,00000.136719,-00000.058594,-00000.156250
0000000003065,00001.694336,00001.381836,00001.088867,00001.113281,00002.182617,00002.055664,00002.294922,00002.509766,00001.621094,00000.717773,-00002.172852,-00000.483398,-00000.541992,00000.136719,-00000.053711,-00000.156250
0000000003066,00001.699219,00001.381836,00001.088867,00001.113281,00002.192383,00002.060547,00002.294922,00002.519531,00001.611328,00000.722656,-00002.153320,-00000.478516,-00000.546875,00000.131836,-00000.048828,-00000.156250
0000000003067,00001.694336,00001.386719,00001.088867,00001.113281,00002.211914,00002.055664,00002.299805,00002.514648,00001.611328,00000.717773,-00002.148438,-00000.473633,-00000.546875,00000.131836,-00000.043945,-00000.161133
0000000003068,00001.694336,00001.386719,00001.083984,00001.113281,00002.187500,00002.055664,00002.299805,00002.514648,00001.606445,00000.712891,-00002.153320,-00000.468750,-00000.541992,00000.131836,-00000.034180,-00000.161133
0000000003069,00001.694336,00001.381836,00001.088867,00001.093750,00002.177734,00002.055664,00002.294922,00002.514648,00001.586914,00000.708008,-00002.163086,-00000.473633,-00000.541992,00000.141602,-00000.034180,-00000.156250
0000000003070,00001.689453,00001.362305,00001.083984,00001.083984,00002.177734,00002.050781,00002.299805,00002.514648,00001.582031,00000.698242,-00002.167969,-00000.473633,-00000.546875,00000.136719,-00000.034180,-00000.156250
0000000003071,00001.689453,00001.357422,00001.079102,00001.069336,00002.172852,00002.050781,00002.294922,00002.514648,00001.577148,00000.693359,-00002.163086,-00000.478516,-00000.541992,00000.136719,-00000.034180,-00000.161133
0000000003072,00001.689453,00001.352539,00001.079102,00001.059570,00002.172852,00002.045898,00002.294922,00002.509766,00001.562500,00000.688477,-00002.172852,-00000.488281,-00000.537109,00000.146484,-00000.043945,-00000.156250
0000000003073,00001.684570,00001.352539,00001.079102,00001.005859,00002.172852,00002.045898,00002.290039,00002.504883,00001.562500,00000.683594,-00002.177734,-00000.493164,-00000.541992,00000.146484,-00000.048828,-00000.161133
0000000003074,00001.684570,00001.352539,00001.079102,00001.005859,00002.172852,00002.045898,00002.294922,00002.500000,00001.562500,00000.683594,-00002.182617,-00000.502930,-00000.541992,00000.146484,-00000.048828,-00000.156250
0000000003075,00001.689453,00001.352539,00001.079102,00001.000977,00002.172852,00002.050781,00002.294922,00002.509766,00001.557617,00000.688477,-00002.172852,-00000.507813,-00000.537109,00000.151367,-00000.048828,-00000.156250
0000000003076,00001.684570,00001.352539,00001.079102,00001.010742,00002.172852,00002.045898,00002.294922,00002.504883,00001.557617,00000.688477,-00002.138672,-00000.512695,-00000.537109,00000.141602,-00000.039063,-00000.156250
0000000003077,00001.689453,00001.352539,00001.079102,00001.020508,00002.167969,00002.045898,00002.290039,00002.504883,00001.557617,00000.683594,-00002.133789,-00000.512695,-00000.527344,00000.126953,-00000.039063,-00000.151367
0000000003078,00001.689453,00001.352539,00001.079102,00001.025391,00002.172852,00002.045898,00002.290039,00002.509766,00001.557617,00000.688477,-00002.133789,-00000.512695,-00000.537109,00000.122070,-00000.034180,-00000.151367
0000000003079,00001.689453,00001.357422,00001.079102,00001.025391,00002.177734,00002.050781,00002.294922,00002.509766,00001.557617,00000.693359,-00002.124023,-00000.517578,-00000.537109,00000.112305,-00000.034180,-00000.151367
0000000003080,00001.689453,00001.376953,00001.074219,00001.035156,00002.172852,00002.045898,00002.294922,00002.509766,00001.562500,00000.698242,-00002.114258,-00000.517578,-00000.537109,00000.107422,-00000.043945,-00000.151367
0000000003081,00001.689453,00001.376953,00001.079102,00001.025391,00002.172852,00002.045898,00002.294922,00002.509766,00001.562500,00000.703125,-00002.114258,-00000.502930,-00000.537109,00000.097656,-00000.048828,-00000.146484
0000000003082,00001.689453,00001.376953,00001.079102,00001.035156,00002.177734,00002.045898,00002.294922,00002.514648,00001.557617,00000.703125,-00002.109375,-00000.498047,-00000.541992,00000.092773,-00000.043945,-00000.141602
0000000003083,00001.689453,00001.376953,00001.079102,00001.030273,00002.177734,00002.045898,00002.294922,00002.514648,00001.562500,00000.703125,-00002.104492,-00000.498047,-00000.546875,00000.087891,-00000.039063,-00000.141602
0000000003084,00001.689453,00001.376953,00001.079102,00001.015625,00002.172852,00002.050781,00002.294922,00002.509766,00001.557617,00000.698242,-00002.128906,-00000.507813,-00000.541992,00000.102539,-00000.043945,-00000.136719
0000000003085,00001.684570,00001.376953,00001.079102,00001.010742,00002.177734,00002.045898,00002.294922,00002.514648,00001.557617,00000.698242,-00002.119141,-00000.517578,-00000.541992,00000.092773,-00000.043945,-00000.136719
