0000000005130,00002.522860,00001.834518,00002.070480,00002.560349,00002.651898,00002.597268,00002.683559,00003.348173,00002.802831,00002.021638,-00000.385316,-00000.046351,-00000.473959,-00000.009635,-00000.049291,-00000.019499
0000000005131,00002.522792,00001.834525,00002.071113,00002.560085,00002.652009,00002.596807,00002.683511,00003.348092,00002.802672,00002.021483,-00000.385328,-00000.046120,-00000.473931,-00000.009243,-00000.049261,-00000.019488
0000000005132,00002.522839,00001.834546,00002.071699,00002.559832,00002.652279,00002.596703,00002.683586,00003.348052,00002.802537,00002.021776,-00000.385341,-00000.045989,-00000.473863,-00000.008565,-00000.049217,-00000.019502
0000000005133,00002.522781,00001.834551,00002.072238,00002.559970,00002.652011,00002.596674,00002.683545,00003.347620,00002.802764,00002.021644,-00000.385351,-00000.045792,-00000.473839,-00000.007869,-00000.049191,-00000.019492
0000000005134,00002.523183,00001.834569,00002.073463,00002.560118,00002.652604,00002.596585,00002.683609,00003.347949,00002.802649,00002.021893,-00000.385362,-00000.045681,-00000.473781,-00000.007655,-00000.049517,-00000.019505
0000000005135,00002.522771,00001.834574,00002.074285,00002.560235,00002.652376,00002.596560,00002.683574,00003.347944,00002.802479,00002.021781,-00000.385371,-00000.045513,-00000.473398,-00000.007424,-00000.050221,-00000.019496
0000000005136,00002.522751,00001.834589,00002.075327,00002.559998,00002.652518,00002.596485,00002.683628,00003.347861,00002.802381,00002.021630,-00000.385017,-00000.045418,-00000.472986,-00000.007242,-00000.050861,-00000.019869
0000000005137,00002.522400,00001.834230,00002.076389,00002.559735,00002.652686,00002.596463,00002.683599,00003.348219,00002.802237,00002.021535,-00000.384662,-00000.045276,-00000.472660,-00000.007046,-00000.051460,-00000.020225
0000000005138,00002.522383,00001.834243,00002.077276,00002.559534,00002.652807,00002.596399,00002.683645,00003.348148,00002.802153,00002.021769,-00000.384361,-00000.045195,-00000.472672,-00000.006891,-00000.052005,-00000.020543
0000000005139,00002.522447,00001.834300,00002.078181,00002.559310,00002.652950,00002.596381,00002.683983,00003.348091,00002.802393,00002.022051,-00000.384058,-00000.045074,-00000.472395,-00000.006724,-00000.052515,-00000.020483
0000000005140,00002.522070,00001.834311,00002.078936,00002.559864,00002.652691,00002.596326,00002.684385,00003.348031,00002.803048,00002.021888,-00000.383802,-00000.045005,-00000.472042,-00000.006229,-00000.052616,-00000.020390
0000000005141,00002.522487,00001.834360,00002.080069,00002.559673,00002.652813,00002.596674,00002.683947,00003.348345,00002.803252,00002.022127,-00000.383545,-00000.044901,-00000.472169,-00000.006087,-00000.052325,-00000.020339
0000000005142,00002.522166,00001.834370,00002.080712,00002.559419,00002.652954,00002.596627,00002.684289,00003.348293,00002.803809,00002.021988,-00000.383689,-00000.044843,-00000.471868,-00000.005665,-00000.051685,-00000.020261
0000000005143,00002.522521,00001.834411,00002.081676,00002.559620,00002.653421,00002.596560,00002.684279,00003.348198,00002.803983,00002.021829,-00000.383833,-00000.044755,-00000.471613,-00000.005182,-00000.050711,-00000.020217
0000000005144,00002.522248,00001.834419,00002.082224,00002.559040,00002.653542,00002.596157,00002.684208,00003.347791,00002.803732,00002.021711,-00000.383593,-00000.044705,-00000.471721,-00000.004823,-00000.050167,-00000.020513
0000000005145,00002.522188,00001.834455,00002.082682,00002.558848,00002.653576,00002.596100,00002.684199,00003.348073,00002.803517,00002.021576,-00000.383353,-00000.044630,-00000.471866,-00000.004411,-00000.049701,-00000.020476
0000000005146,00002.522318,00001.834461,00002.083148,00002.559081,00002.653316,00002.596483,00002.684138,00003.348089,00002.803666,00002.021475,-00000.383511,-00000.044588,-00000.471595,-00000.004469,-00000.049238,-00000.020728
0000000005147,00002.521903,00001.834492,00002.083538,00002.558917,00002.653345,00002.596072,00002.684131,00003.347966,00002.803846,00002.021360,-00000.383307,-00000.044524,-00000.471719,-00000.004481,-00000.049203,-00000.020696
0000000005148,00002.522014,00001.834497,00002.083935,00002.558753,00002.653487,00002.596035,00002.683716,00003.347980,00002.803610,00002.021275,-00000.383079,-00000.044488,-00000.471851,-00000.004530,-00000.049172,-00000.020548
0000000005149,00002.521662,00001.834160,00002.083904,00002.558613,00002.653512,00002.595685,00002.683710,00003.347876,00002.803401,00002.021539,-00000.382905,-00000.044433,-00000.471956,-00000.004903,-00000.049143,-00000.020884
0000000005150,00002.521393,00001.833802,00002.083879,00002.558473,00002.653632,00002.595291,00002.683720,00003.347888,00002.803200,00002.021466,-00000.382711,-00000.044403,-00000.471705,-00000.005307,-00000.048753,-00000.020758
0000000005151,00002.521093,00001.833515,00002.083490,00002.557992,00002.653653,00002.594993,00002.683715,00003.348161,00002.803021,00002.021692,-00000.382562,-00000.044356,-00000.471795,-00000.005625,-00000.048366,-00000.020681
0000000005152,00002.520864,00001.833573,00002.083468,00002.557872,00002.653756,00002.594657,00002.684086,00003.348172,00002.802850,00002.021992,-00000.382397,-00000.044330,-00000.471582,-00000.005969,-00000.048034,-00000.020573
0000000005153,00002.520246,00001.833692,00002.082774,00002.557825,00002.653411,00002.594041,00002.684081,00003.347316,00002.803061,00002.021459,-00000.382271,-00000.044291,-00000.471296,-00000.006240,-00000.047341,-00000.020508
0000000005154,00002.519688,00001.833741,00002.082393,00002.557724,00002.653498,00002.593755,00002.684397,00003.347325,00002.803278,00002.020989,-00000.382131,-00000.044269,-00000.471477,-00000.006533,-00000.046696,-00000.020779
0000000005155,00002.519162,00001.833479,00002.082528,00002.557321,00002.653205,00002.593593,00002.684394,00003.347322,00002.803095,00002.020898,-00000.382023,-00000.044235,-00000.471233,-00000.007126,-00000.046106,-00000.020724
0000000005156,00002.518325,00001.833522,00002.082204,00002.557234,00002.653279,00002.593350,00002.684663,00003.347330,00002.803280,00002.020861,-00000.381903,-00000.044216,-00000.471387,-00000.007738,-00000.045920,-00000.020954
0000000005157,00002.517877,00001.833661,00002.082319,00002.557254,00002.653392,00002.593212,00002.685022,00003.347327,00002.803124,00002.021146,-00000.381812,-00000.044188,-00000.471542,-00000.008606,-00000.045780,-00000.021270
0000000005158,00002.517889,00001.833334,00002.082405,00002.556818,00002.653455,00002.593005,00002.684888,00003.347696,00002.802919,00002.021114,-00000.381710,-00000.044171,-00000.471674,-00000.009490,-00000.045622,-00000.021466
0000000005159,00002.517871,00001.833091,00002.082866,00002.556835,00002.653551,00002.592887,00002.684832,00003.348057,00002.802786,00002.020994,-00000.381632,-00000.044510,-00000.471806,-00000.009866,-00000.045866,-00000.021372
0000000005160,00002.517882,00001.833175,00002.083302,00002.556826,00002.653605,00002.592711,00002.684718,00003.348371,00002.802611,00002.020967,-00000.381545,-00000.044859,-00000.471918,-00000.010255,-00000.046094,-00000.021540
0000000005161,00002.517866,00001.833330,00002.083694,00002.556841,00002.653687,00002.592974,00002.684669,00003.348679,00002.802498,00002.021227,-00000.381479,-00000.045147,-00000.472030,-00000.010575,-00000.046664,-00000.021459
0000000005162,00002.517875,00001.833402,00002.083703,00002.557196,00002.653733,00002.593187,00002.684572,00003.348946,00002.802349,00002.021205,-00000.381405,-00000.045082,-00000.472125,-00000.010907,-00000.047221,-00000.021602
0000000005163,00002.517861,00001.833172,00002.084037,00002.557208,00002.653802,00002.593048,00002.684169,00003.348845,00002.801890,00002.020701,-00000.381349,-00000.044964,-00000.472221,-00000.011180,-00000.047707,-00000.021533
0000000005164,00002.517506,00001.833233,00002.084045,00002.557148,00002.653841,00002.592866,00002.684449,00003.348710,00002.801763,00002.020681,-00000.381286,-00000.044908,-00000.472302,-00000.011462,-00000.048181,-00000.021292
0000000005165,00002.517495,00001.833399,00002.084329,00002.557158,00002.653901,00002.593110,00002.684468,00003.349349,00002.801735,00002.020615,-00000.381238,-00000.044808,-00000.472384,-00000.011694,-00000.048594,-00000.021234
0000000005166,00002.517556,00001.833089,00002.084335,00002.557107,00002.653934,00002.592956,00002.683981,00003.349597,00002.801627,00002.020599,-00000.381185,-00000.044761,-00000.472453,-00000.011572,-00000.048998,-00000.021028
0000000005167,00002.517183,00001.833230,00002.083851,00002.557116,00002.653622,00002.593164,00002.683997,00003.349053,00002.801966,00002.020542,-00000.381144,-00000.044676,-00000.472522,-00000.011406,-00000.049350,-00000.020979
0000000005168,00002.517235,00001.833329,00002.083857,00002.557435,00002.653287,00002.593758,00002.683945,00003.348901,00002.802237,00002.020528,-00000.381098,-00000.044635,-00000.472581,-00000.011302,-00000.049693,-00000.020804
0000000005169,00002.517280,00001.833449,00002.083808,00002.557805,00002.653021,00002.594298,00002.683959,00003.349163,00002.802526,00002.020480,-00000.381063,-00000.044563,-00000.472640,-00000.011161,-00000.050356,-00000.020761
0000000005170,00002.516961,00001.833896,00002.084175,00002.557714,00002.653462,00002.594440,00002.684277,00003.349397,00002.802757,00002.020105,-00000.381025,-00000.044528,-00000.472690,-00000.011073,-00000.051011,-00000.020612
0000000005171,00002.517000,00001.833636,00002.084497,00002.557667,00002.653599,00002.594537,00002.684289,00003.349620,00002.803002,00002.020427,-00000.380995,-00000.044466,-00000.472740,-00000.011316,-00000.051938,-00000.020577
0000000005172,00002.516729,00001.833653,00002.084809,00002.557589,00002.653974,00002.594659,00002.684560,00003.349819,00002.803199,00002.020834,-00000.380962,-00000.044800,-00000.472783,-00000.011603,-00000.052858,-00000.020450
0000000005173,00002.516399,00001.833794,00002.084720,00002.557912,00002.653727,00002.594741,00002.684933,00003.349647,00002.803408,00002.020382,-00000.380937,-00000.045110,-00000.472826,-00000.011810,-00000.053647,-00000.020782
0000000005174,00002.516168,00001.833809,00002.084623,00002.558208,00002.653321,00002.594845,00002.684801,00003.349090,00002.803575,00002.020003,-00000.380909,-00000.045031,-00000.472862,-00000.011692,-00000.054431,-00000.020674
0000000005175,00002.516250,00001.833929,00002.084910,00002.558120,00002.653474,00002.594915,00002.684393,00003.349306,00002.803390,00002.020344,-00000.380887,-00000.044932,-00000.472898,-00000.011505,-00000.055102,-00000.020957
0000000005176,00002.516416,00001.833942,00002.084828,00002.558010,00002.653128,00002.595003,00002.683918,00003.349558,00002.803170,00002.020384,-00000.380863,-00000.044865,-00000.472929,-00000.011404,-00000.055769,-00000.021228
0000000005177,00002.516486,00001.834044,00002.085072,00002.557935,00002.653621,00002.595063,00002.683933,00003.349742,00002.803375,00002.020674,-00000.380845,-00000.044781,-00000.472960,-00000.011245,-00000.056341,-00000.021468
0000000005178,00002.516627,00001.834055,00002.085365,00002.557841,00002.653690,00002.595138,00002.683892,00003.350319,00002.803550,00002.021071,-00000.380825,-00000.044724,-00000.472986,-00000.011522,-00000.056546,-00000.021699
0000000005179,00002.516324,00001.834142,00002.085210,00002.558140,00002.653746,00002.595189,00002.684268,00003.350476,00002.804088,00002.020955,-00000.380809,-00000.044653,-00000.473013,-00000.011750,-00000.056670,-00000.021904
0000000005180,00002.516444,00001.834151,00002.085096,00002.558060,00002.653805,00002.595615,00002.684232,00003.350604,00002.803874,00002.020930,-00000.380792,-00000.044604,-00000.473035,-00000.011623,-00000.057208,-00000.022100
0000000005181,00002.516186,00001.834226,00002.085327,00002.558314,00002.654216,00002.595659,00002.684189,00003.350737,00002.803969,00002.020832,-00000.380416,-00000.044180,-00000.472695,-00000.011454,-00000.057676,-00000.022275
0000000005182,00002.515563,00001.834233,00002.085230,00002.558609,00002.653903,00002.595659,00002.684159,00003.350484,00002.804150,00002.020448,-00000.380401,-00000.044139,-00000.472351,-00000.011346,-00000.058134,-00000.022442
0000000005183,00002.515343,00001.833934,00002.085064,00002.558825,00002.653527,00002.595696,00002.684123,00003.350597,00002.803868,00002.020727,-00000.380081,-00000.043778,-00000.471699,-00000.011565,-00000.058532,-00000.022591
0000000005184,00002.515176,00001.834303,00002.084982,00002.559076,00002.653623,00002.596059,00002.684460,00003.350382,00002.804385,00002.020762,-00000.380068,-00000.043743,-00000.471043,-00000.011835,-00000.058922,-00000.022733
0000000005185,00002.515351,00001.834411,00002.084840,00002.559261,00002.653304,00002.596453,00002.684429,00003.350478,00002.804508,00002.020637,-00000.380158,-00000.043799,-00000.470850,-00000.012022,-00000.059261,-00000.022496
0000000005186,00002.515571,00001.834363,00002.085133,00002.559111,00002.653385,00002.596400,00002.684353,00003.350658,00002.804222,00002.021030,-00000.380148,-00000.043769,-00000.470655,-00000.011889,-00000.059593,-00000.022255
0000000005187,00002.515358,00001.834092,00002.085012,00002.558906,00002.653476,00002.596372,00002.684326,00003.350740,00002.803964,00002.020924,-00000.380225,-00000.043816,-00000.470128,-00000.011322,-00000.060244,-00000.022054
0000000005188,00002.515545,00001.833688,00002.084899,00002.558779,00002.653546,00002.595964,00002.684262,00003.350892,00002.803720,00002.021259,-00000.380215,-00000.043428,-00000.469962,-00000.010484,-00000.060889,-00000.021848
0000000005189,00002.515364,00001.833820,00002.083708,00002.558241,00002.653623,00002.595578,00002.684239,00003.350962,00002.803501,00002.021168,-00000.380281,-00000.043468,-00000.469877,-00000.009276,-00000.061807,-00000.021314
0000000005190,00002.515161,00001.833839,00002.081797,00002.558132,00002.653319,00002.595230,00002.684184,00003.350729,00002.803656,00002.020364,-00000.380273,-00000.043500,-00000.469735,-00000.007837,-00000.062356,-00000.021139
0000000005191,00002.514643,00001.833951,00002.079695,00002.557674,00002.653022,00002.594539,00002.684165,00003.350426,00002.803832,00002.019562,-00000.380329,-00000.043535,-00000.469662,-00000.006445,-00000.062775,-00000.020684
0000000005192,00002.514470,00001.833604,00002.078431,00002.557220,00002.653127,00002.594243,00002.684118,00003.350591,00002.803602,00002.019240,-00000.379959,-00000.043562,-00000.469542,-00000.005220,-00000.062879,-00000.020535
0000000005193,00002.514030,00001.833700,00002.076642,00002.556830,00002.652511,00002.594017,00002.684102,00003.349970,00002.803388,00002.018557,-00000.379644,-00000.043229,-00000.469117,-00000.004036,-00000.062873,-00000.020148
0000000005194,00002.513157,00001.833405,00002.075203,00002.556443,00002.652600,00002.593765,00002.684062,00003.350110,00002.803555,00002.017921,-00000.379330,-00000.043252,-00000.468652,-00000.002993,-00000.062962,-00000.019658
0000000005195,00002.512419,00001.833486,00002.074042,00002.556111,00002.652801,00002.593210,00002.684048,00003.350307,00002.803374,00002.016976,-00000.379424,-00000.043331,-00000.468290,-00000.001985,-00000.062956,-00000.019329
0000000005196,00002.511676,00001.833598,00002.072818,00002.555418,00002.652877,00002.592996,00002.684014,00003.350426,00002.803516,00002.016797,-00000.379519,-00000.042988,-00000.467894,-00000.000734,-00000.063032,-00000.018549
0000000005197,00002.511048,00001.833667,00002.071829,00002.555136,00002.653049,00002.592886,00002.684365,00003.350231,00002.803724,00002.016356,-00000.379599,-00000.042692,-00000.467586,00000.000487,-00000.063027,-00000.017906
0000000005198,00002.510778,00001.833399,00002.071150,00002.555272,00002.652750,00002.592703,00002.684337,00003.350332,00002.803482,00002.015841,-00000.379680,-00000.042763,-00000.467249,00000.001552,-00000.063092,-00000.017242
0000000005199,00002.510606,00001.833096,00002.070308,00002.555031,00002.652533,00002.592610,00002.684273,00003.350529,00002.803297,00002.015465,-00000.379749,-00000.042511,-00000.466986,00000.002592,-00000.063450,-00000.016694
0000000005200,00002.510014,00001.833230,00002.069367,00002.554421,00002.652642,00002.592092,00002.684248,00003.350253,00002.803091,00002.014664,-00000.379817,-00000.042209,-00000.466699,00000.003135,-00000.063868,-00000.016129
0000000005201,00002.509868,00001.833335,00002.068651,00002.554579,00002.652458,00002.592012,00002.684193,00003.350057,00002.803295,00002.014344,-00000.379876,-00000.041995,-00000.466476,00000.003657,-00000.064174,-00000.015663
0000000005202,00002.510089,00001.833449,00002.068212,00002.554786,00002.652188,00002.592297,00002.684173,00003.350548,00002.803483,00002.014388,-00000.379934,-00000.041737,-00000.466232,00000.004120,-00000.064166,-00000.015182
0000000005203,00002.509964,00001.833175,00002.067603,00002.554558,00002.652393,00002.592229,00002.684126,00003.350744,00002.803295,00002.014115,-00000.379984,-00000.041192,-00000.466042,00000.004202,-00000.063701,-00000.014785
0000000005204,00002.509790,00001.833273,00002.066866,00002.554371,00002.652163,00002.592108,00002.683746,00003.350799,00002.803091,00002.013790,-00000.380034,-00000.040973,-00000.465834,00000.004233,-00000.063332,-00000.014738
0000000005205,00002.509321,00001.833402,00002.065985,00002.554539,00002.651975,00002.592051,00002.683343,00003.350966,00002.802931,00002.013195,-00000.380076,-00000.040871,-00000.465672,00000.003940,-00000.063298,-00000.014763
0000000005206,00002.508810,00001.833123,00002.065358,00002.554017,00002.652142,00002.591585,00002.683382,00003.351013,00002.802758,00002.012918,-00000.380118,-00000.040685,-00000.465495,00000.003966,-00000.063347,-00000.014723
0000000005207,00002.508773,00001.832870,00002.064970,00002.553798,00002.652345,00002.591536,00002.683402,00003.351155,00002.802621,00002.013137,-00000.380154,-00000.040598,-00000.465357,00000.004442,-00000.063318,-00000.014745
0000000005208,00002.508338,00001.832995,00002.064074,00002.554079,00002.652488,00002.591502,00002.683435,00003.351195,00002.802837,00002.013264,-00000.380191,-00000.040802,-00000.465207,00000.005191,-00000.062634,-00000.015074
0000000005209,00002.508670,00001.832780,00002.063381,00002.553892,00002.652660,00002.591098,00002.683453,00003.351316,00002.802721,00002.013451,-00000.380221,-00000.040729,-00000.465089,00000.005596,-00000.062247,-00000.015455
0000000005210,00002.509025,00001.832886,00002.062980,00002.554132,00002.652419,00002.591069,00002.683481,00003.351712,00002.802904,00002.013559,-00000.380252,-00000.040540,-00000.464961,00000.005870,-00000.062390,-00000.015735
0000000005211,00002.509307,00001.833066,00002.062753,00002.553973,00002.652566,00002.591451,00002.683496,00003.352178,00002.803168,00002.013355,-00000.380278,-00000.040477,-00000.464861,00000.006215,-00000.062786,-00000.016059
0000000005212,00002.508884,00001.833156,00002.062050,00002.554177,00002.651997,00002.591426,00002.683520,00003.351790,00002.803324,00002.012721,-00000.380304,-00000.040316,-00000.464752,00000.006085,-00000.063271,-00000.015934
0000000005213,00002.509125,00001.833309,00002.061856,00002.554404,00002.651760,00002.591388,00002.683532,00003.351824,00002.803186,00002.012548,-00000.380326,-00000.040263,-00000.465030,00000.006016,-00000.063971,-00000.015848
0000000005214,00002.508764,00001.833386,00002.061257,00002.554578,00002.651638,00002.591005,00002.683552,00003.351494,00002.803319,00002.012371,-00000.380711,-00000.040126,-00000.465300,00000.006269,-00000.064384,-00000.016104
0000000005215,00002.508606,00001.833517,00002.060730,00002.554771,00002.651799,00002.590972,00002.683926,00003.351523,00002.803564,00002.012586,-00000.381093,-00000.040081,-00000.465536,00000.006573,-00000.064617,-00000.016031
0000000005216,00002.509025,00001.833582,00002.060220,00002.554919,00002.652059,00002.591371,00002.683943,00003.351967,00002.803315,00002.012798,-00000.381058,-00000.039964,-00000.465766,00000.006788,-00000.064968,-00000.015887
0000000005217,00002.508890,00001.833330,00002.059771,00002.554721,00002.652195,00002.591343,00002.684261,00003.351991,00002.803523,00002.012619,-00000.381020,-00000.039925,-00000.465967,00000.007047,-00000.065166,-00000.015824
0000000005218,00002.508884,00001.833386,00002.059337,00002.554847,00002.652416,00002.591320,00002.684276,00003.351644,00002.803674,00002.012799,-00000.381353,-00000.040189,-00000.466163,00000.007230,-00000.065466,-00000.015701
0000000005219,00002.509132,00001.833171,00002.059318,00002.555041,00002.652533,00002.591660,00002.684184,00003.352028,00002.803489,00002.013372,-00000.381321,-00000.040156,-00000.465971,00000.007450,-00000.065634,-00000.015647
0000000005220,00002.509853,00001.833219,00002.059311,00002.555148,00002.652721,00002.592003,00002.684196,00003.352095,00002.803254,00002.013889,-00000.381242,-00000.040017,-00000.465775,00000.007969,-00000.065889,-00000.015543
0000000005221,00002.510064,00001.833399,00002.059294,00002.555676,00002.652457,00002.592654,00002.684118,00003.352059,00002.803459,00002.014013,-00000.381214,-00000.039989,-00000.465612,00000.008519,-00000.066033,-00000.015497
0000000005222,00002.509951,00001.833440,00002.058926,00002.555767,00002.652617,00002.592946,00002.684129,00003.351753,00002.803985,00002.014090,-00000.381510,-00000.040234,-00000.465808,00000.008598,-00000.066612,-00000.015046
0000000005223,00002.509769,00001.833593,00002.058549,00002.555854,00002.652393,00002.592775,00002.684062,00003.351722,00002.804522,00002.014197,-00000.381849,-00000.040573,-00000.466032,00000.008341,-00000.067098,-00000.014644
0000000005224,00002.509673,00001.833627,00002.058235,00002.556295,00002.652529,00002.593024,00002.684071,00003.351825,00002.805332,00002.014625,-00000.382100,-00000.040782,-00000.466198,00000.008408,-00000.067591,-00000.014260
0000000005225,00002.509880,00001.833758,00002.057914,00002.556369,00002.652338,00002.593604,00002.683651,00003.351799,00002.805790,00002.014715,-00000.382389,-00000.041070,-00000.466389,00000.008551,-00000.067641,-00000.013918
0000000005226,00002.510161,00001.833787,00002.057647,00002.556381,00002.651728,00002.593816,00002.683659,00003.351886,00002.806480,00002.014717,-00000.382603,-00000.041248,-00000.466531,00000.009334,-00000.067336,-00000.013590
0000000005227,00002.510338,00001.833536,00002.057374,00002.556444,00002.651928,00002.593947,00002.683665,00003.351864,00002.806506,00002.014431,-00000.382849,-00000.041493,-00000.466693,00000.010182,-00000.067015,-00000.012937
0000000005228,00002.510214,00001.833561,00002.056784,00002.556454,00002.651772,00002.593765,00002.683671,00003.351575,00002.807094,00002.014070,-00000.383032,-00000.041644,-00000.466814,00000.010848,-00000.067118,-00000.012295
0000000005229,00002.510002,00001.833709,00002.056189,00002.556507,00002.651580,00002.593513,00002.684039,00003.351194,00002.807842,00002.013464,-00000.383241,-00000.041854,-00000.466952,00000.011570,-00000.067934,-00000.011738
0000000005230,00002.509897,00001.833731,00002.055686,00002.556516,00002.651447,00002.593358,00002.683682,00003.350948,00002.807979,00002.012794,-00000.383396,-00000.041982,-00000.467418,00000.011775,-00000.069110,-00000.011192
0000000005231,00002.509715,00001.833857,00002.055542,00002.556199,00002.651646,00002.592781,00002.683994,00003.350986,00002.808253,00002.012641,-00000.383574,-00000.042160,-00000.467535,00000.012027,-00000.070167,-00000.010719
0000000005232,00002.509626,00001.833875,00002.055115,00002.555844,00002.651895,00002.592286,00002.684053,00003.351140,00002.808370,00002.012796,-00000.383706,-00000.042270,-00000.467569,00000.012563,-00000.070805,-00000.010254
0000000005233,00002.509472,00001.833983,00002.054629,00002.555936,00002.651702,00002.592158,00002.684320,00003.351172,00002.808966,00002.012665,-00000.383858,-00000.042421,-00000.467669,00000.013141,-00000.071343,-00000.009850
0000000005234,00002.509396,00001.833998,00002.053902,00002.555997,00002.651915,00002.592099,00002.684732,00003.350940,00002.809429,00002.012434,-00000.384333,-00000.042514,-00000.467698,00000.013598,-00000.071886,-00000.009455
0000000005235,00002.509265,00001.834090,00002.053126,00002.555713,00002.651750,00002.591990,00002.684596,00003.350605,00002.809573,00002.012323,-00000.384825,-00000.042644,-00000.467420,00000.014089,-00000.071981,-00000.009111
0000000005236,00002.509200,00001.834103,00002.052508,00002.555764,00002.651568,00002.592303,00002.684585,00003.350770,00002.809604,00002.012127,-00000.385230,-00000.042723,-00000.467445,00000.014478,-00000.072080,-00000.008774
0000000005237,00002.509088,00001.834181,00002.051847,00002.555523,00002.651791,00002.592210,00002.684832,00003.350847,00002.809727,00002.012032,-00000.385649,-00000.042833,-00000.467208,00000.014896,-00000.072161,-00000.008482
0000000005238,00002.509033,00001.834192,00002.051320,00002.555566,00002.651999,00002.592477,00002.684822,00003.350988,00002.810116,00002.012228,-00000.385993,-00000.042900,-00000.467229,00000.015227,-00000.071883,-00000.008195
0000000005239,00002.509301,00001.833896,00002.051121,00002.555361,00002.652188,00002.592397,00002.684670,00003.351054,00002.810221,00002.012510,-00000.386350,-00000.043357,-00000.467391,00000.015584,-00000.071589,-00000.007583
0000000005240,00002.509617,00001.833905,00002.050672,00002.555398,00002.651640,00002.592261,00002.684661,00003.351174,00002.810189,00002.012314,-00000.386643,-00000.043414,-00000.467771,00000.015503,-00000.071715,-00000.006976
0000000005241,00002.509844,00001.833653,00002.050502,00002.555586,00002.651438,00002.592557,00002.684169,00003.351230,00002.810279,00002.012554,-00000.386946,-00000.043802,-00000.468272,00000.015080,-00000.071827,-00000.006456
0000000005242,00002.509751,00001.833661,00002.050121,00002.555617,00002.651697,00002.592804,00002.684525,00003.350969,00002.810615,00002.012750,-00000.387196,-00000.043851,-00000.468595,00000.015011,-00000.071935,-00000.005939
0000000005243,00002.509582,00001.833809,00002.049976,00002.555777,00002.651888,00002.592693,00002.684468,00003.350654,00002.811053,00002.012591,-00000.387454,-00000.043819,-00000.468659,00000.015015,-00000.071668,-00000.005496
0000000005244,00002.509502,00001.833816,00002.049651,00002.555804,00002.651745,00002.592903,00002.684045,00003.350795,00002.811339,00002.012758,-00000.387667,-00000.044224,-00000.468571,00000.014956,-00000.071396,-00000.005056
0000000005245,00002.509358,00001.833942,00002.049165,00002.555940,00002.651908,00002.592808,00002.683997,00003.350526,00002.811713,00002.012986,-00000.387887,-00000.044559,-00000.468988,00000.014959,-00000.070806,-00000.004679
0000000005246,00002.509653,00001.833948,00002.049614,00002.555963,00002.652150,00002.592987,00002.684000,00003.350646,00002.811956,00002.013491,-00000.388068,-00000.044904,-00000.468914,00000.014909,-00000.070575,-00000.004304
0000000005247,00002.509531,00001.834055,00002.049563,00002.555716,00002.652288,00002.592906,00002.684322,00003.350781,00002.812637,00002.014048,-00000.388255,-00000.044826,-00000.468906,00000.014911,-00000.070435,-00000.004346
0000000005248,00002.509781,00001.834060,00002.049582,00002.555736,00002.652856,00002.593059,00002.684324,00003.351245,00002.812844,00002.014477,-00000.388409,-00000.045119,-00000.468843,00000.014869,-00000.069876,-00000.004390
0000000005249,00002.510040,00001.834151,00002.049539,00002.555888,00002.652974,00002.593353,00002.684598,00003.351360,00002.813424,00002.014588,-00000.388568,-00000.045417,-00000.468836,00000.015233,-00000.068669,-00000.004062
0000000005250,00002.510254,00001.834156,00002.049193,00002.555542,00002.653095,00002.593483,00002.684600,00003.351393,00002.813600,00002.014591,-00000.388699,-00000.045666,-00000.468782,00000.015197,-00000.067104,-00000.003737
0000000005251,00002.510474,00001.834596,00002.049156,00002.555672,00002.653196,00002.593733,00002.684833,00003.351490,00002.814456,00002.014686,-00000.388835,-00000.045919,-00000.468776,00000.015145,-00000.065714,-00000.003458
0000000005252,00002.510656,00001.834600,00002.049224,00002.555740,00002.653299,00002.593844,00002.685198,00003.351155,00002.815332,00002.014689,-00000.388947,-00000.046131,-00000.469093,00000.015114,-00000.064744,-00000.003181
0000000005253,00002.511206,00001.834612,00002.049193,00002.556213,00002.653022,00002.594057,00002.685034,00003.351238,00002.816061,00002.014769,-00000.389062,-00000.046347,-00000.469088,00000.015070,-00000.063923,-00000.002944
0000000005254,00002.510998,00001.834615,00002.049250,00002.556634,00002.653109,00002.594151,00002.684981,00003.350953,00002.817169,00002.014771,-00000.389157,-00000.046528,-00000.469358,00000.015043,-00000.063098,-00000.002708
0000000005255,00002.511104,00001.834626,00002.049224,00002.556674,00002.653236,00002.593969,00002.684842,00003.350661,00002.817427,00002.015203,-00000.389255,-00000.046711,-00000.469354,00000.015368,-00000.062399,-00000.002506
0000000005256,00002.511652,00001.834628,00002.049273,00002.557032,00002.653311,00002.594412,00002.684797,00003.350781,00002.818370,00002.015567,-00000.389336,-00000.046865,-00000.469221,00000.015709,-00000.061697,-00000.002305
0000000005257,00002.511742,00001.834637,00002.048525,00002.557066,00002.653419,00002.594621,00002.684678,00003.350533,00002.818953,00002.015935,-00000.389420,-00000.047021,-00000.469217,00000.015985,-00000.061465,-00000.002134
0000000005258,00002.511483,00001.835002,00002.047115,00002.557371,00002.653482,00002.594635,00002.684640,00003.350272,00002.819756,00002.015882,-00000.389489,-00000.047152,-00000.469104,00000.016275,-00000.061230,-00000.002325
0000000005259,00002.511923,00001.835010,00002.046478,00002.557763,00002.653574,00002.595175,00002.684539,00003.350423,00002.820251,00002.015832,-00000.389197,-00000.047285,-00000.469101,00000.016511,-00000.061032,-00000.002179
0000000005260,00002.512428,00001.834958,00002.045642,00002.558023,00002.653628,00002.595550,00002.684506,00003.350564,00002.820572,00002.016150,-00000.389256,-00000.047033,-00000.469004,00000.016757,-00000.060832,-00000.002342
0000000005261,00002.512802,00001.834964,00002.044736,00002.558357,00002.653706,00002.596010,00002.684420,00003.350693,00002.821357,00002.016471,-00000.389008,-00000.047146,-00000.468639,00000.016958,-00000.060301,-00000.002581
0000000005262,00002.512870,00001.834920,00002.044024,00002.558215,00002.653752,00002.595603,00002.684392,00003.350450,00002.821630,00002.016379,-00000.388695,-00000.046933,-00000.468557,00000.017168,-00000.059405,-00000.002720
0000000005263,00002.512825,00001.834925,00002.042891,00002.558499,00002.653819,00002.595632,00002.684682,00003.350197,00002.822298,00002.016288,-00000.388846,-00000.046666,-00000.468609,00000.017339,-00000.058590,-00000.002922
0000000005264,00002.512520,00001.834887,00002.041921,00002.558741,00002.653858,00002.595649,00002.684658,00003.349990,00002.822894,00002.016210,-00000.388580,-00000.046847,-00000.468176,00000.017517,-00000.057464,-00000.003041
0000000005265,00002.512845,00001.835255,00002.040957,00002.559345,00002.654278,00002.595673,00002.684905,00003.349774,00002.823825,00002.016496,-00000.388709,-00000.046983,-00000.468220,00000.017663,-00000.056045,-00000.003213
0000000005266,00002.512948,00001.835223,00002.040131,00002.559189,00002.654311,00002.595688,00002.684885,00003.349961,00002.823969,00002.016792,-00000.388845,-00000.046774,-00000.467852,00000.017815,-00000.053999,-00000.003314
0000000005267,00002.512862,00001.835173,00002.038947,00002.559341,00002.654305,00002.595708,00002.685094,00003.349778,00002.824762,00002.016673,-00000.388955,-00000.046889,-00000.467526,00000.017939,-00000.052065,-00000.003461
0000000005268,00002.513312,00001.835145,00002.038245,00002.559933,00002.653971,00002.596083,00002.685077,00003.349937,00002.825248,00002.016562,-00000.389071,-00000.046712,-00000.467213,00000.018431,-00000.050322,-00000.003547
0000000005269,00002.513601,00001.835103,00002.037600,00002.559699,00002.654329,00002.596464,00002.685256,00003.350143,00002.825560,00002.016823,-00000.389164,-00000.046447,-00000.466936,00000.018536,-00000.049039,-00000.003672
0000000005270,00002.513622,00001.835080,00002.036639,00002.559478,00002.654407,00002.596420,00002.685604,00003.349916,00002.825973,00002.016729,-00000.389263,-00000.046659,-00000.466669,00000.018593,-00000.048281,-00000.003745
0000000005271,00002.513506,00001.835043,00002.035727,00002.559279,00002.653986,00002.596381,00002.685393,00003.349729,00002.826239,00002.016589,-00000.388980,-00000.046434,-00000.466433,00000.018319,-00000.047552,-00000.003852
0000000005272,00002.512798,00001.835024,00002.034909,00002.559090,00002.653690,00002.595982,00002.685327,00003.349535,00002.826591,00002.016509,-00000.389063,-00000.046251,-00000.466206,00000.018005,-00000.046907,-00000.003914
0000000005273,00002.512336,00001.834993,00002.034132,00002.559284,00002.653332,00002.596311,00002.685148,00003.349376,00002.826817,00002.016389,-00000.388822,-00000.046059,-00000.466005,00000.017772,-00000.045923,-00000.004005
0000000005274,00002.512096,00001.834976,00002.033436,00002.559486,00002.653079,00002.596334,00002.685091,00003.349211,00002.826754,00002.016321,-00000.388531,-00000.045904,-00000.465812,00000.017504,-00000.045011,-00000.004057
0000000005275,00002.511703,00001.834950,00002.032775,00002.559651,00002.653137,00002.595889,00002.684938,00003.349076,00002.826946,00002.016219,-00000.388326,-00000.045740,-00000.466004,00000.017306,-00000.044536,-00000.004135
0000000005276,00002.511498,00001.834935,00002.032545,00002.559823,00002.653285,00002.595908,00002.685253,00003.348936,00002.827255,00002.016161,-00000.388078,-00000.045608,-00000.466202,00000.016715,-00000.044122,-00000.004180
0000000005277,00002.511164,00001.834913,00002.031982,00002.559601,00002.653334,00002.595892,00002.685123,00003.348820,00002.827419,00002.015711,-00000.387903,-00000.045469,-00000.466002,00000.016547,-00000.043718,-00000.004245
0000000005278,00002.511352,00001.834538,00002.031787,00002.559385,00002.653460,00002.595908,00002.684666,00003.349064,00002.826957,00002.015662,-00000.387692,-00000.045356,-00000.465808,00000.016406,-00000.043003,-00000.004284
0000000005279,00002.511068,00001.834519,00002.031307,00002.559558,00002.653502,00002.595894,00002.684918,00003.348965,00002.827096,00002.015642,-00000.387543,-00000.045238,-00000.465638,00000.016263,-00000.042296,-00000.004340
0000000005280,00002.511228,00001.834562,00002.030778,00002.559737,00002.653247,00002.596271,00002.684891,00003.348810,00002.827065,00002.015600,-00000.387726,-00000.045142,-00000.465473,00000.016144,-00000.041688,-00000.004735
0000000005281,00002.510986,00001.834546,00002.030370,00002.559522,00002.652920,00002.596259,00002.684743,00003.348726,00002.826821,00002.015220,-00000.387962,-00000.045042,-00000.465329,00000.016021,-00000.041086,-00000.004783
0000000005282,00002.510760,00001.834583,00002.029919,00002.559674,00002.653065,00002.596217,00002.684720,00003.348231,00002.826795,00002.015184,-00000.388118,-00000.044960,-00000.465188,00000.015920,-00000.040931,-00000.004757
0000000005283,00002.510916,00001.834570,00002.029935,00002.559853,00002.652786,00002.596207,00002.684231,00003.348523,00002.826587,00002.015587,-00000.388319,-00000.044874,-00000.465065,00000.015816,-00000.041144,-00000.004797
0000000005284,00002.510724,00001.834601,00002.030277,00002.559983,00002.652910,00002.596171,00002.684211,00003.348464,00002.826928,00002.015556,-00000.388089,-00000.044805,-00000.464945,00000.015729,-00000.041375,-00000.004775
0000000005285,00002.511220,00001.834589,00002.031016,00002.560136,00002.653036,00002.596526,00002.683795,00003.348712,00002.826751,00002.015536,-00000.387897,-00000.044732,-00000.464840,00000.015641,-00000.041193,-00000.004809
0000000005286,00002.511419,00001.834616,00002.031670,00002.559883,00002.653141,00002.596132,00002.683779,00003.349025,00002.826678,00002.015510,-00000.387702,-00000.044672,-00000.464739,00000.015567,-00000.041390,-00000.004790
0000000005287,00002.511115,00001.834606,00002.031936,00002.559651,00002.652885,00002.595709,00002.683787,00003.348511,00002.826527,00002.015130,-00000.387538,-00000.044610,-00000.464287,00000.015492,-00000.041961,-00000.004457
0000000005288,00002.510922,00001.834629,00002.032493,00002.559798,00002.652975,00002.595736,00002.683773,00003.348414,00002.826828,00002.015108,-00000.387734,-00000.044560,-00000.464200,00000.015066,-00000.042854,-00000.003715
0000000005289,00002.510664,00001.834621,00002.033082,00002.559963,00002.653120,00002.595738,00002.684143,00003.348339,00002.827062,00002.015147,-00000.387595,-00000.044507,-00000.464178,00000.014639,-00000.043340,-00000.003069
0000000005290,00002.510862,00001.834277,00002.033556,00002.560089,00002.653196,00002.596125,00002.684131,00003.348620,00002.826956,00002.015491,-00000.387762,-00000.044464,-00000.464104,00000.014640,-00000.043374,-00000.002437
0000000005291,00002.510642,00001.834270,00002.034058,00002.560229,00002.653320,00002.596127,00002.684083,00003.348556,00002.826793,00002.015525,-00000.387644,-00000.044419,-00000.463722,00000.014639,-00000.043426,-00000.001887
0000000005292,00002.510811,00001.834341,00002.034461,00002.559974,00002.653385,00002.596093,00002.684436,00003.348795,00002.826702,00002.015817,-00000.387423,-00000.044383,-00000.463297,00000.014640,-00000.043455,-00000.001349
0000000005293,00002.510986,00001.834334,00002.034888,00002.560093,00002.653490,00002.596094,00002.684395,00003.348740,00002.826926,00002.015846,-00000.387323,-00000.043981,-00000.462972,00000.014639,-00000.043861,-00000.000881
0000000005294,00002.511130,00001.834394,00002.034869,00002.560238,00002.653182,00002.596066,00002.683970,00003.348218,00002.826848,00002.015370,-00000.387498,-00000.043950,-00000.462610,00000.014277,-00000.044249,-00000.000423
0000000005295,00002.510917,00001.834389,00002.034870,00002.560340,00002.653272,00002.596067,00002.683935,00003.348172,00002.827039,00002.015394,-00000.387412,-00000.043972,-00000.462333,00000.013913,-00000.044595,-00000.000024
0000000005296,00002.511039,00001.834440,00002.035216,00002.560463,00002.653373,00002.596405,00002.683936,00003.348090,00002.827336,00002.015351,-00000.387561,-00000.043945,-00000.462025,00000.013605,-00000.044925,00000.000365
0000000005297,00002.511220,00001.834436,00002.035579,00002.560550,00002.653449,00002.596769,00002.683543,00003.348413,00002.827135,00002.015372,-00000.387851,-00000.043963,-00000.462152,00000.013296,-00000.044857,00000.000705
0000000005298,00002.511687,00001.834117,00002.036237,00002.560655,00002.653535,00002.596694,00002.683544,00003.348706,00002.827025,00002.015335,-00000.387977,-00000.043941,-00000.461889,00000.013396,-00000.044775,00000.001037
0000000005299,00002.511841,00001.834113,00002.036547,00002.560729,00002.653237,00002.597004,00002.683573,00003.348619,00002.827217,00002.015353,-00000.387861,-00000.043956,-00000.461998,00000.013495,-00000.045080,00000.001326
0000000005300,00002.511876,00001.834204,00002.036744,00002.560818,00002.653310,00002.597303,00002.683573,00003.348869,00002.827123,00002.015322,-00000.387606,-00000.043937,-00000.461774,00000.013581,-00000.045736,00000.001608
0000000005301,00002.512007,00001.833838,00002.037007,00002.560881,00002.653420,00002.597567,00002.683598,00003.349520,00002.827287,00002.015700,-00000.387870,-00000.043950,-00000.461867,00000.013665,-00000.045995,00000.002217
0000000005302,00002.511674,00001.833915,00002.036812,00002.560957,00002.653482,00002.597459,00002.683961,00003.349369,00002.827570,00002.016036,-00000.387653,-00000.043934,-00000.462039,00000.013738,-00000.045828,00000.002820
0000000005303,00002.511786,00001.833966,00002.036673,00002.561011,00002.653575,00002.597320,00002.683982,00003.349198,00002.827709,00002.015995,-00000.387515,-00000.043945,-00000.462118,00000.013810,-00000.045686,00000.003339
0000000005304,00002.512227,00001.834032,00002.036507,00002.561075,00002.653628,00002.597591,00002.683928,00003.349433,00002.827587,00002.016281,-00000.387331,-00000.043931,-00000.462265,00000.013872,-00000.045181,00000.003852
0000000005305,00002.512323,00001.834076,00002.036389,00002.561121,00002.653344,00002.597836,00002.683583,00003.349650,00002.827343,00002.016246,-00000.387213,-00000.043941,-00000.462332,00000.013933,-00000.044697,00000.004293
0000000005306,00002.511973,00001.834132,00002.036248,00002.561176,00002.653389,00002.597704,00002.683900,00003.349124,00002.827602,00002.016127,-00000.387056,-00000.043929,-00000.462457,00000.013623,-00000.044630,00000.004730
0000000005307,00002.512054,00001.834169,00002.036510,00002.561215,00002.653511,00002.597912,00002.683969,00003.349309,00002.827394,00002.016460,-00000.386956,-00000.043937,-00000.462514,00000.013313,-00000.044218,00000.005106
0000000005308,00002.511757,00001.834217,00002.036390,00002.561625,00002.653549,00002.598163,00002.683877,00003.349587,00002.827615,00002.016359,-00000.386822,-00000.043564,-00000.462620,00000.013049,-00000.043798,00000.005478
0000000005309,00002.511463,00001.834248,00002.036251,00002.561658,00002.653652,00002.597977,00002.683935,00003.349381,00002.827801,00002.015917,-00000.386737,-00000.043208,-00000.462306,00000.012784,-00000.043447,00000.005435
0000000005310,00002.511573,00001.834289,00002.036511,00002.561644,00002.653685,00002.597827,00002.683856,00003.349618,00002.827626,00002.016193,-00000.386623,-00000.042891,-00000.462033,00000.012922,-00000.042727,00000.005389
0000000005311,00002.511685,00001.833953,00002.036755,00002.561309,00002.653773,00002.598033,00002.683544,00003.349806,00002.827421,00002.016180,-00000.386188,-00000.042588,-00000.461766,00000.013060,-00000.042066,00000.005353
0000000005312,00002.511778,00001.833988,00002.036977,00002.560934,00002.653801,00002.597905,00002.683476,00003.349645,00002.827272,00002.016052,-00000.386091,-00000.042318,-00000.461897,00000.013177,-00000.041453,00000.005676
0000000005313,00002.511512,00001.834065,00002.036822,00002.561375,00002.653876,00002.597717,00002.683573,00003.349442,00002.827460,00002.015678,-00000.386083,-00000.042423,-00000.462032,00000.012932,-00000.040890,00000.006008
0000000005314,00002.511228,00001.834094,00002.036648,00002.561056,00002.653899,00002.597245,00002.683516,00003.348942,00002.827334,00002.015207,-00000.386000,-00000.042193,-00000.462144,00000.013032,-00000.040368,00000.006283
0000000005315,00002.511001,00001.833797,00002.036878,00002.560706,00002.654326,00002.597085,00002.683598,00003.349132,00002.827131,00002.015614,-00000.385994,-00000.041919,-00000.462258,00000.012823,-00000.039889,00000.006566
0000000005316,00002.510397,00001.833459,00002.036730,00002.560797,00002.653983,00002.597047,00002.683186,00003.349069,00002.827023,00002.015575,-00000.385923,-00000.041723,-00000.462353,00000.012545,-00000.039444,00000.006800
0000000005317,00002.509841,00001.833206,00002.036564,00002.560861,00002.653984,00002.597273,00002.683256,00003.349231,00002.826851,00002.015559,-00000.385918,-00000.041490,-00000.462451,00000.012367,-00000.039399,00000.007040
0000000005318,00002.509689,00001.832918,00002.036438,00002.560576,00002.653692,00002.597240,00002.682906,00003.349177,00002.826396,00002.015526,-00000.385858,-00000.041324,-00000.462532,00000.012131,-00000.039384,00000.007240
0000000005319,00002.509216,00001.832703,00002.035933,00002.560631,00002.653329,00002.597070,00002.682966,00003.348952,00002.826250,00002.015150,-00000.385853,-00000.041125,-00000.462615,00000.011979,-00000.038982,00000.007445
0000000005320,00002.508724,00001.832458,00002.035826,00002.560388,00002.653081,00002.597043,00002.682667,00003.348906,00002.825863,00002.015122,-00000.385802,-00000.040983,-00000.462321,00000.012141,-00000.038244,00000.007252
0000000005321,00002.508684,00001.832638,00002.035759,00002.560435,00002.653135,00002.597261,00002.682718,00003.349078,00002.825738,00002.015527,-00000.385798,-00000.040815,-00000.462030,00000.012738,-00000.037902,00000.007063
0000000005322,00002.508265,00001.832429,00002.035668,00002.560228,00002.653287,00002.597237,00002.682827,00003.349401,00002.825408,00002.015503,-00000.385754,-00000.040694,-00000.461779,00000.012875,-00000.037636,00000.007262
0000000005323,00002.507868,00001.832582,00002.035249,00002.559905,00002.653333,00002.597060,00002.682870,00003.348822,00002.825302,00002.015122,-00000.385751,-00000.040550,-00000.461531,00000.013020,-00000.037345,00000.007464
0000000005324,00002.507149,00001.832767,00002.034808,00002.559729,00002.653462,00002.597039,00002.682963,00003.348735,00002.825022,00002.015102,-00000.385714,-00000.040447,-00000.461318,00000.013137,-00000.037481,00000.007633
0000000005325,00002.507174,00001.832897,00002.034814,00002.559817,00002.653138,00002.597251,00002.683000,00003.348967,00002.824568,00002.015503,-00000.385711,-00000.040325,-00000.461106,00000.013261,-00000.037597,00000.007805
0000000005326,00002.506924,00001.833055,00002.034801,00002.560030,00002.652885,00002.597597,00002.683079,00003.348893,00002.824692,00002.015123,-00000.385680,-00000.040238,-00000.461288,00000.013361,-00000.037350,00000.007949
0000000005327,00002.506583,00001.833166,00002.034443,00002.560105,00002.652610,00002.597777,00002.683110,00003.348364,00002.824669,00002.015102,-00000.385677,-00000.040133,-00000.461108,00000.013466,-00000.037085,00000.008096
0000000005328,00002.506370,00001.833300,00002.034070,00002.559924,00002.652757,00002.597709,00002.683540,00003.348301,00002.824775,00002.014779,-00000.385650,-00000.040059,-00000.460899,00000.013188,-00000.036875,00000.008218
0000000005329,00002.506442,00001.833394,00002.034128,00002.559987,00002.652885,00002.597862,00002.683567,00003.348577,00002.824393,00002.014761,-00000.385648,-00000.039970,-00000.460746,00000.012915,-00000.036650,00000.008343
0000000005330,00002.506624,00001.833146,00002.034536,00002.560196,00002.653374,00002.598167,00002.683570,00003.349249,00002.824482,00002.015211,-00000.385625,-00000.039907,-00000.460569,00000.013041,-00000.036471,00000.008448
0000000005331,00002.506685,00001.832863,00002.034948,00002.559887,00002.653846,00002.597935,00002.683592,00003.349484,00002.824157,00002.015195,-00000.385624,-00000.039831,-00000.460438,00000.013171,-00000.036279,00000.008191
0000000005332,00002.506840,00001.832652,00002.034933,00002.559702,00002.654261,00002.597831,00002.683595,00003.349331,00002.823870,00002.015216,-00000.385604,-00000.039777,-00000.460287,00000.013641,-00000.036127,00000.007917
0000000005333,00002.507255,00001.832411,00002.034921,00002.559439,00002.654300,00002.597996,00002.683615,00003.349531,00002.823593,00002.015566,-00000.385603,-00000.039713,-00000.460176,00000.013752,-00000.035963,00000.008061
0000000005334,00002.507387,00001.832231,00002.034908,00002.559281,00002.654291,00002.597908,00002.683617,00003.349763,00002.823350,00002.015583,-00000.385586,-00000.039667,-00000.460048,00000.013789,-00000.036196,00000.007828
0000000005335,00002.507740,00001.832389,00002.034897,00002.559057,00002.654325,00002.597686,00002.683633,00003.349933,00002.823114,00002.015518,-00000.385585,-00000.039613,-00000.460316,00000.013884,-00000.036420,00000.007951
0000000005336,00002.507853,00001.832236,00002.034886,00002.558923,00002.654317,00002.597611,00002.683635,00003.350131,00002.822906,00002.015533,-00000.385571,-00000.039573,-00000.460206,00000.013916,-00000.036256,00000.008115
0000000005337,00002.507790,00001.832008,00002.034878,00002.558732,00002.653983,00002.597422,00002.683287,00003.349913,00002.822705,00002.015477,-00000.385570,-00000.039527,-00000.460435,00000.013996,-00000.036084,00000.008220
0000000005338,00002.507523,00001.831877,00002.034868,00002.558981,00002.653613,00002.597721,00002.683288,00003.350081,00002.822892,00002.015490,-00000.385558,-00000.039493,-00000.460342,00000.014023,-00000.035581,00000.008360
0000000005339,00002.507470,00001.831683,00002.035223,00002.558819,00002.653691,00002.597560,00002.683354,00003.350258,00002.822721,00002.015443,-00000.385557,-00000.039454,-00000.460173,00000.014092,-00000.035434,00000.008086
0000000005340,00002.507969,00001.831935,00002.035578,00002.559030,00002.653740,00002.597814,00002.683356,00003.350401,00002.822879,00002.015454,-00000.385547,-00000.039426,-00000.460094,00000.014115,-00000.035369,00000.007842
0000000005341,00002.508286,00001.831769,00002.036243,00002.559255,00002.653806,00002.597677,00002.683412,00003.350552,00002.822733,00002.015414,-00000.385546,-00000.039392,-00000.459950,00000.014173,-00000.035607,00000.007972
0000000005342,00002.508710,00001.831983,00002.036182,00002.559798,00002.653847,00002.597894,00002.683413,00003.350674,00002.822868,00002.015423,-00000.385537,-00000.039368,-00000.459883,00000.014193,-00000.035914,00000.008127
0000000005343,00002.508981,00001.832205,00002.036386,00002.559989,00002.654267,00002.598140,00002.683461,00003.350803,00002.823107,00002.015751,-00000.385536,-00000.039339,-00000.459761,00000.014242,-00000.035754,00000.008238
0000000005344,00002.508979,00001.832388,00002.036334,00002.560089,00002.654302,00002.597961,00002.683824,00003.350544,00002.823222,00002.015759,-00000.385529,-00000.039681,-00000.459703,00000.014259,-00000.036016,00000.008370
0000000005345,00002.509209,00001.832214,00002.036145,00002.560251,00002.654296,00002.597808,00002.683865,00003.350653,00002.823063,00002.015676,-00000.385528,-00000.039657,-00000.459962,00000.014301,-00000.036605,00000.008464
0000000005346,00002.509571,00001.832369,00002.035738,00002.560336,00002.654326,00002.597656,00002.684175,00003.350433,00002.823523,00002.015683,-00000.385522,-00000.039585,-00000.459913,00000.013953,-00000.036828,00000.008939
0000000005347,00002.509404,00001.832584,00002.035577,00002.560475,00002.654321,00002.597526,00002.684572,00003.350163,00002.823750,00002.015975,-00000.385159,-00000.039564,-00000.459771,00000.013626,-00000.036604,00000.009745
0000000005348,00002.509349,00001.832716,00002.035230,00002.560547,00002.654346,00002.597396,00002.684473,00003.349612,00002.823780,00002.016343,-00000.384791,-00000.039504,-00000.459729,00000.013692,-00000.035705,00000.010512
0000000005349,00002.509207,00001.832899,00002.039084,00002.560665,00002.654342,00002.597285,00002.684811,00003.349020,00002.823973,00002.016592,-00000.384481,-00000.039486,-00000.459608,00000.013414,-00000.034789,00000.011198
0000000005350,00002.509523,00001.833012,00002.043142,00002.561089,00002.654001,00002.597538,00002.684727,00003.348551,00002.823998,00002.016906,-00000.384168,-00000.039434,-00000.459573,00000.013470,-00000.033661,00000.011851
0000000005351,00002.509764,00001.832805,00002.046423,00002.561189,00002.653635,00002.597806,00002.684652,00003.348410,00002.823800,00002.017117,-00000.383905,-00000.039419,-00000.459469,00000.013233,-00000.032518,00000.012435
0000000005352,00002.509670,00001.832900,00002.049878,00002.561550,00002.654070,00002.597659,00002.684943,00003.348374,00002.823821,00002.017384,-00000.383638,-00000.039375,-00000.459439,00000.012918,-00000.031921,00000.012992
0000000005353,00002.509514,00001.833087,00002.052308,00002.561636,00002.653758,00002.597524,00002.684879,00003.347891,00002.824015,00002.017202,-00000.383777,-00000.039362,-00000.459351,00000.012716,-00000.031673,00000.013489
0000000005354,00002.509434,00001.833168,00002.050895,00002.561580,00002.653766,00002.597399,00002.684764,00003.347497,00002.824033,00002.017066,-00000.383912,-00000.039325,-00000.459326,00000.012811,-00000.031528,00000.013962
0000000005355,00002.508937,00001.833327,00002.048973,00002.561653,00002.653500,00002.597284,00002.684710,00003.347086,00002.823835,00002.016911,-00000.384030,-00000.039314,-00000.459251,00000.013365,-00000.031317,00000.014385
0000000005356,00002.508869,00001.833397,00002.047771,00002.561606,00002.653144,00002.597177,00002.684612,00003.346751,00002.823488,00002.016796,-00000.384146,-00000.039282,-00000.459229,00000.013446,-00000.031193,00000.014788
0000000005357,00002.508447,00001.833169,00002.046497,00002.561305,00002.653281,00002.596717,00002.684566,00003.346763,00002.823320,00002.017026,-00000.384246,-00000.039272,-00000.459165,00000.013554,-00000.031376,00000.015511
0000000005358,00002.508026,00001.833228,00002.045474,00002.561265,00002.652977,00002.596989,00002.684483,00003.346478,00002.823024,00002.016928,-00000.383982,-00000.039245,-00000.459147,00000.012897,-00000.031996,00000.016217
0000000005359,00002.508029,00001.833034,00002.044390,00002.561009,00002.652731,00002.596960,00002.684443,00003.346489,00002.822881,00002.017124,-00000.383705,-00000.039600,-00000.459455,00000.012264,-00000.032515,00000.016833
0000000005360,00002.507671,00001.832722,00002.043881,00002.560975,00002.652473,00002.597191,00002.684372,00003.346971,00002.822629,00002.017403,-00000.383479,-00000.039940,-00000.459802,00000.011705,-00000.033043,00000.017071
0000000005361,00002.507311,00001.832920,00002.042596,00002.560757,00002.652626,00002.596803,00002.684702,00003.346981,00002.822507,00002.017570,-00000.383243,-00000.039879,-00000.460065,00000.011529,-00000.033122,00000.017232
0000000005362,00002.507006,00001.833016,00002.041800,00002.560365,00002.652769,00002.596275,00002.685004,00003.346666,00002.822293,00002.017808,-00000.383052,-00000.039805,-00000.460360,00000.011779,-00000.032846,00000.017435
0000000005363,00002.506699,00001.832822,00002.040705,00002.559816,00002.652899,00002.596308,00002.684922,00003.346674,00002.821826,00002.017950,-00000.382851,-00000.039754,-00000.460221,00000.011629,-00000.032551,00000.017572
0000000005364,00002.506440,00001.832542,00002.040391,00002.559483,00002.653021,00002.596220,00002.684816,00003.347131,00002.821281,00002.018152,-00000.382688,-00000.039691,-00000.460110,00000.011478,-00000.032315,00000.017745
0000000005365,00002.506179,00001.832739,00002.039459,00002.559742,00002.652769,00002.596248,00002.684746,00003.347138,00002.821246,00002.018274,-00000.382517,-00000.039647,-00000.459991,00000.011351,-00000.032064,00000.017499
0000000005366,00002.505958,00001.832500,00002.039191,00002.559820,00002.652510,00002.596174,00002.684293,00003.347165,00002.820782,00002.018446,-00000.382378,-00000.039594,-00000.459897,00000.011223,-00000.032226,00000.017283
0000000005367,00002.506098,00001.832668,00002.038398,00002.560041,00002.652295,00002.596561,00002.684234,00003.347171,00002.820753,00002.018549,-00000.382232,-00000.039556,-00000.460159,00000.011114,-00000.032012,00000.017073
0000000005368,00002.505547,00001.832828,00002.037444,00002.559745,00002.652075,00002.596498,00002.684211,00003.346831,00002.820721,00002.018333,-00000.382114,-00000.039511,-00000.460441,00000.011005,-00000.031788,00000.016889
0000000005369,00002.505304,00001.832608,00002.037132,00002.559932,00002.651892,00002.596464,00002.683798,00003.346835,00002.820333,00002.018058,-00000.381990,-00000.039479,-00000.460301,00000.010913,-00000.031606,00000.017074
0000000005370,00002.505198,00001.832381,00002.037046,00002.559681,00002.651704,00002.596773,00002.683416,00003.346909,00002.819943,00002.018236,-00000.381889,-00000.039440,-00000.460541,00000.010820,-00000.031414,00000.016918
0000000005371,00002.504628,00001.832557,00002.036417,00002.559840,00002.651549,00002.596744,00002.683426,00003.346550,00002.819612,00002.018365,-00000.381784,-00000.039413,-00000.460422,00000.010741,-00000.031259,00000.016712
0000000005372,00002.504538,00001.832726,00002.035981,00002.559989,00002.651389,00002.596644,00002.683464,00003.346250,00002.819643,00002.018154,-00000.381698,-00000.039380,-00000.460626,00000.010662,-00000.030734,00000.016579
0000000005373,00002.504416,00001.832513,00002.035446,00002.559762,00002.651620,00002.596620,00002.683110,00003.345945,00002.819362,00002.018264,-00000.381608,-00000.039357,-00000.460888,00000.010232,-00000.029513,00000.016766
0000000005374,00002.504339,00001.832657,00002.035074,00002.559888,00002.651484,00002.596535,00002.683142,00003.345689,00002.819388,00002.018447,-00000.381535,-00000.039329,-00000.460699,00000.009802,-00000.028340,00000.017016
0000000005375,00002.504235,00001.832476,00002.034981,00002.559695,00002.651680,00002.596877,00002.683204,00003.345792,00002.819512,00002.018541,-00000.381459,-00000.039309,-00000.460559,00000.009436,-00000.027301,00000.017176
0000000005376,00002.504169,00001.832599,00002.035028,00002.559803,00002.651564,00002.597168,00002.683231,00003.345574,00002.819896,00002.018697,-00000.381397,-00000.039285,-00000.460761,00000.009070,-00000.026666,00000.017388
0000000005377,00002.504081,00001.832444,00002.034949,00002.560001,00002.651368,00002.597459,00002.683284,00003.345662,00002.819639,00002.018776,-00000.381332,-00000.039269,-00000.460642,00000.008759,-00000.026144,00000.017524
0000000005378,00002.503662,00001.832186,00002.034626,00002.560093,00002.651632,00002.597343,00002.683307,00003.345476,00002.819604,00002.018909,-00000.381279,-00000.039248,-00000.460451,00000.008447,-00000.025966,00000.017705
0000000005379,00002.503587,00001.832417,00002.034559,00002.559899,00002.651828,00002.597228,00002.683715,00003.345551,00002.819747,00002.018977,-00000.381223,-00000.039234,-00000.460712,00000.008182,-00000.025522,00000.017820
0000000005380,00002.503593,00001.832560,00002.034284,00002.559614,00002.652053,00002.597130,00002.683734,00003.345393,00002.819717,00002.019090,-00000.381178,-00000.039217,-00000.460913,00000.008279,-00000.025007,00000.017974
0000000005381,00002.503529,00001.832394,00002.034226,00002.559449,00002.652220,00002.597395,00002.683719,00003.345457,00002.819477,00002.019148,-00000.381131,-00000.039205,-00000.461135,00000.008416,-00000.024629,00000.018073
0000000005382,00002.503534,00001.832153,00002.034355,00002.559569,00002.652412,00002.597311,00002.683735,00003.345685,00002.819088,00002.019244,-00000.381093,-00000.039190,-00000.461306,00000.008137,-00000.024191,00000.018204
0000000005383,00002.503117,00001.832012,00002.033943,00002.559791,00002.652191,00002.597174,00002.683722,00003.345376,00002.819246,00002.019293,-00000.381053,-00000.039180,-00000.461495,00000.007890,-00000.023869,00000.018288
0000000005384,00002.503122,00001.831807,00002.034053,00002.559531,00002.652354,00002.597103,00002.683736,00003.345208,00002.819279,00002.019375,-00000.381020,-00000.039530,-00000.461640,00000.007652,-00000.023496,00000.018399
0000000005385,00002.503492,00001.831687,00002.033703,00002.559720,00002.652166,00002.597349,00002.683725,00003.345308,00002.819050,00002.019417,-00000.380986,-00000.039884,-00000.461801,00000.007443,-00000.023585,00000.018471
0000000005386,00002.503496,00001.831875,00002.033433,00002.560224,00002.651942,00002.597288,00002.683737,00003.345165,00002.819078,00002.019486,-00000.380958,-00000.040182,-00000.461925,00000.007240,-00000.023993,00000.018566
0000000005387,00002.503448,00001.831772,00002.033135,00002.560385,00002.651782,00002.597135,00002.683364,00003.344887,00002.818883,00002.019522,-00000.380929,-00000.040483,-00000.462062,00000.006699,-00000.024431,00000.018626
0000000005388,00002.503814,00001.831570,00002.033268,00002.560451,00002.652317,00002.597446,00002.683375,00003.345128,00002.818907,00002.019944,-00000.380905,-00000.040737,-00000.462167,00000.006163,-00000.025141,00000.018707
0000000005389,00002.504137,00001.831482,00002.033377,00002.560951,00002.652544,00002.597678,00002.683420,00003.345254,00002.819104,00002.019974,-00000.380880,-00000.040994,-00000.462284,00000.005703,-00000.025877,00000.018396
0000000005390,00002.504811,00001.831310,00002.033490,00002.561371,00002.652636,00002.597943,00002.683429,00003.345822,00002.819124,00002.020334,-00000.380860,-00000.041210,-00000.462374,00000.005610,-00000.026482,00000.018102
0000000005391,00002.505085,00001.831236,00002.035034,00002.561433,00002.652829,00002.597778,00002.683468,00003.345930,00002.819292,00002.020722,-00000.380839,-00000.041428,-00000.462110,00000.005580,-00000.027109,00000.017838
0000000005392,00002.505297,00001.831452,00002.035494,00002.561065,00002.652908,00002.597641,00002.683476,00003.346050,00002.819309,00002.020666,-00000.380822,-00000.041612,-00000.462187,00000.005501,-00000.027260,00000.017587
0000000005393,00002.505893,00001.831389,00002.035720,00002.561118,00002.653435,00002.597863,00002.683509,00003.346505,00002.819452,00002.020996,-00000.380804,-00000.041435,-00000.462325,00000.005113,-00000.027431,00000.017362
0000000005394,00002.506799,00001.831572,00002.036111,00002.561530,00002.653502,00002.598472,00002.683515,00003.346970,00002.819829,00002.021311,-00000.380790,-00000.041592,-00000.462390,00000.004683,-00000.027923,00000.017149
0000000005395,00002.507306,00001.831519,00002.035940,00002.561575,00002.653588,00002.598298,00002.683543,00003.346631,00002.819951,00002.021592,-00000.380774,-00000.041804,-00000.462145,00000.004716,-00000.028068,00000.016957
0000000005396,00002.507352,00001.831675,00002.036273,00002.562288,00002.653645,00002.598816,00002.683549,00003.346665,00002.820272,00002.021497,-00000.380762,-00000.041938,-00000.461838,00000.004712,-00000.027762,00000.016776
0000000005397,00002.507784,00001.831992,00002.036128,00002.562690,00002.653718,00002.599394,00002.683573,00003.346739,00002.820376,00002.022100,-00000.380749,-00000.041755,-00000.461629,00000.004740,-00000.027522,00000.016249
0000000005398,00002.508185,00001.832125,00002.035686,00002.563297,00002.653767,00002.599472,00002.683577,00003.346768,00002.820649,00002.022382,-00000.380738,-00000.041506,-00000.461368,00000.004737,-00000.027261,00000.016095
0000000005399,00002.508553,00001.832032,00002.035562,00002.563639,00002.653829,00002.599964,00002.683598,00003.347194,00002.820737,00002.022532,-00000.380727,-00000.041351,-00000.461190,00000.004761,-00000.027058,00000.016010
0000000005400,00002.508532,00001.831783,00002.035186,00002.563793,00002.653508,00002.600031,00002.683239,00003.347581,00002.820607,00002.022409,-00000.380718,-00000.041139,-00000.461330,00000.004758,-00000.026836,00000.016241
0000000005401,00002.508845,00001.831704,00002.035081,00002.564084,00002.653561,00002.600087,00002.683256,00003.347944,00002.820682,00002.022537,-00000.380709,-00000.041007,-00000.461179,00000.004416,-00000.026662,00000.016169
0000000005402,00002.508827,00001.831492,00002.034760,00002.563852,00002.653287,00002.600144,00002.682951,00003.347910,00002.820572,00002.022795,-00000.380701,-00000.040826,-00000.461298,00000.004051,-00000.026110,00000.016003
0000000005403,00002.508731,00001.831787,00002.034308,00002.564100,00002.653332,00002.600191,00002.682965,00003.347494,00002.820998,00002.022541,-00000.380693,-00000.040714,-00000.461170,00000.004122,-00000.025600,00000.015941
0000000005404,00002.508716,00001.831969,00002.034035,00002.563903,00002.653462,00002.599877,00002.683431,00003.347103,00002.821267,00002.022761,-00000.381049,-00000.040560,-00000.460908,00000.004174,-00000.025130,00000.016163
0000000005405,00002.508271,00001.831858,00002.033650,00002.563751,00002.653500,00002.599554,00002.683443,00003.346748,00002.821267,00002.022907,-00000.381043,-00000.040464,-00000.460799,00000.004235,-00000.024333,00000.016473
0000000005406,00002.507895,00001.832013,00002.033418,00002.563583,00002.653611,00002.599287,00002.683840,00003.346415,00002.821496,00002.023094,-00000.380983,-00000.040333,-00000.460576,00000.004279,-00000.023207,00000.017025
0000000005407,00002.507517,00001.832281,00002.033090,00002.563817,00002.653644,00002.599012,00002.683850,00003.345750,00002.821859,00002.023219,-00000.380977,-00000.040252,-00000.460483,00000.004330,-00000.022166,00000.017651
0000000005408,00002.507197,00001.832050,00002.032892,00002.563674,00002.653738,00002.598785,00002.683825,00003.345466,00002.821328,00002.023378,-00000.380927,-00000.040141,-00000.460294,00000.004368,-00000.020845,00000.018121
0000000005409,00002.506875,00001.832278,00002.032613,00002.563510,00002.653766,00002.598551,00002.684197,00003.345263,00002.821275,00002.023484,-00000.380922,-00000.039708,-00000.460214,00000.004775,-00000.019958,00000.018292
0000000005410,00002.506602,00001.832082,00002.032445,00002.563388,00002.653846,00002.598720,00002.684175,00003.345385,00002.820823,00002.023620,-00000.380878,-00000.039251,-00000.459690,00000.005170,-00000.019196,00000.018329
0000000005411,00002.505965,00001.832276,00002.032208,00002.563611,00002.653869,00002.598884,00002.684492,00003.345212,00002.820777,00002.023711,-00000.380874,-00000.039246,-00000.459260,00000.005516,-00000.018804,00000.018474
0000000005412,00002.506096,00001.832109,00002.032427,00002.563508,00002.653938,00002.599027,00002.684474,00003.345315,00002.820755,00002.023826,-00000.380838,-00000.038856,-00000.458814,00000.005852,-00000.018518,00000.018506
0000000005413,00002.505917,00001.832274,00002.032225,00002.563698,00002.653958,00002.599167,00002.684380,00003.345168,00002.821079,00002.023903,-00000.380834,-00000.038489,-00000.458447,00000.005784,-00000.018185,00000.018629
0000000005414,00002.505302,00001.832132,00002.031686,00002.563247,00002.654016,00002.598927,00002.684365,00003.344530,00002.820697,00002.024001,-00000.380803,-00000.038157,-00000.458068,00000.005708,-00000.017942,00000.018656
0000000005415,00002.504787,00001.832272,00002.031151,00002.563408,00002.654033,00002.598683,00002.684648,00003.344405,00002.820973,00002.023704,-00000.380800,-00000.037845,-00000.457393,00000.005650,-00000.017657,00000.018762
0000000005416,00002.504990,00001.832151,00002.031055,00002.563750,00002.654445,00002.598841,00002.684635,00003.344588,00002.821011,00002.024150,-00000.380773,-00000.037562,-00000.456707,00000.005584,-00000.017813,00000.018421
0000000005417,00002.504551,00001.831908,00002.031688,00002.563888,00002.654460,00002.598633,00002.684876,00003.344118,00002.821246,00002.024260,-00000.380770,-00000.037296,-00000.456133,00000.005535,-00000.017571,00000.018148
0000000005418,00002.504723,00001.832168,00002.032332,00002.564179,00002.654448,00002.599130,00002.684865,00003.344274,00002.821278,00002.024277,-00000.380748,-00000.037056,-00000.455549,00000.005480,-00000.017704,00000.017859
0000000005419,00002.504712,00001.832324,00002.032871,00002.564659,00002.654460,00002.599316,00002.684707,00003.344600,00002.821115,00002.024008,-00000.380746,-00000.036829,-00000.455060,00000.005438,-00000.017861,00000.017627
0000000005420,00002.504496,00001.832182,00002.033419,00002.565269,00002.654088,00002.599377,00002.684697,00003.344732,00002.821143,00002.024023,-00000.380726,-00000.036262,-00000.454562,00000.005028,-00000.017974,00000.017380
0000000005421,00002.504124,00001.832315,00002.033878,00002.565678,00002.654098,00002.599173,00002.684926,00003.344647,00002.821004,00002.024156,-00000.380362,-00000.035344,-00000.453783,00000.004992,-00000.017744,00000.017182
0000000005422,00002.503578,00001.832557,00002.033982,00002.565835,00002.654143,00002.598861,00002.684918,00003.344397,00002.821028,00002.023806,-00000.380345,-00000.034861,-00000.452997,00000.005006,-00000.017841,00000.016972
0000000005423,00002.503624,00001.832307,00002.034373,00002.565820,00002.654515,00002.598687,00002.684750,00003.344687,00002.820909,00002.023920,-00000.380035,-00000.034079,-00000.451971,00000.004975,-00000.017645,00000.016441
0000000005424,00002.503884,00001.832150,00002.034461,00002.566316,00002.654554,00002.598785,00002.684743,00003.344837,00002.820929,00002.023984,-00000.379658,-00000.033305,-00000.451302,00000.004987,-00000.017364,00000.016263
0000000005425,00002.503923,00001.832301,00002.034431,00002.566303,00002.654870,00002.598637,00002.684600,00003.344721,00002.820466,00002.024081,-00000.379756,-00000.033002,-00000.450429,00000.004598,-00000.017924,00000.016173
0000000005426,00002.503419,00001.832530,00002.034143,00002.567089,00002.654903,00002.598720,00002.684957,00003.344486,00002.820846,00002.024136,-00000.379436,-00000.032706,-00000.449859,00000.004245,-00000.018410,00000.016384
0000000005427,00002.503453,00001.832658,00002.033755,00002.567803,00002.654447,00002.598957,00002.684835,00003.344750,00002.820814,00002.024218,-00000.379520,-00000.032448,-00000.449478,00000.003914,-00000.018887,00000.016308
0000000005428,00002.503387,00001.832490,00002.033873,00002.568109,00002.654475,00002.599028,00002.684776,00003.344913,00002.820775,00002.024628,-00000.379247,-00000.032196,-00000.448993,00000.003977,-00000.018938,00000.016124
0000000005429,00002.503415,00001.832599,00002.033542,00002.569080,00002.654450,00002.599592,00002.684672,00003.345138,00002.820748,00002.024698,-00000.379318,-00000.031977,-00000.448669,00000.004058,-00000.018980,00000.016060
0000000005430,00002.502996,00001.832819,00002.032554,00002.570066,00002.654473,00002.599653,00002.684622,00003.344914,00002.821077,00002.024684,-00000.379448,-00000.031762,-00000.448256,00000.003748,-00000.019387,00000.016266
0000000005431,00002.502657,00001.832912,00002.031184,00002.570530,00002.654089,00002.599770,00002.684897,00003.344742,00002.821417,00002.024743,-00000.379509,-00000.031938,-00000.447980,00000.003092,-00000.019786,00000.016574
0000000005432,00002.502300,00001.833099,00002.029980,00002.570281,00002.654109,00002.599459,00002.684854,00003.344551,00002.821334,00002.024731,-00000.379620,-00000.032118,-00000.447629,00000.002465,-00000.020495,00000.016750
0000000005433,00002.502375,00001.833178,00002.028814,00002.570676,00002.654145,00002.599559,00002.684725,00003.344406,00002.821624,00002.024420,-00000.380035,-00000.032268,-00000.447031,00000.001906,-00000.021560,00000.016649
0000000005434,00002.502797,00001.833338,00002.027426,00002.570827,00002.654162,00002.600019,00002.684688,00003.344606,00002.821553,00002.024409,-00000.380855,-00000.032421,-00000.446369,00000.001373,-00000.022526,00000.016436
0000000005435,00002.502860,00001.833405,00002.024620,00002.570438,00002.654555,00002.600105,00002.684578,00003.344844,00002.821437,00002.024506,-00000.381933,-00000.032912,-00000.445860,00000.001260,-00000.023433,00000.016350
0000000005436,00002.502856,00001.833541,00002.021262,00002.570203,00002.654932,00002.600134,00002.684547,00003.345015,00002.821377,00002.024135,-00000.383720,-00000.033768,-00000.444934,00000.000806,-00000.024256,00000.016169
0000000005437,00002.502548,00001.833598,00002.018509,00002.569509,00002.655267,00002.600206,00002.684454,00003.345218,00002.821278,00002.023855,-00000.385726,-00000.034911,-00000.444501,-00000.000016,-00000.025753,00000.016095
0000000005438,00002.501456,00001.833714,00002.015651,00002.568947,00002.655588,00002.600231,00002.684790,00003.345000,00002.821227,00002.023539,-00000.387610,-00000.036002,-00000.443712,-00000.000765,-00000.027179,00000.015941
0000000005439,00002.500468,00001.834125,00002.012219,00002.568356,00002.655510,00002.599930,00002.685073,00003.344810,00002.821505,00002.022938,-00000.389681,-00000.036975,-00000.442981,-00000.001464,-00000.028454,00000.016242
0000000005440,00002.499901,00001.834586,00002.009060,00002.568240,00002.655784,00002.599951,00002.685360,00003.344625,00002.821825,00002.022305,-00000.391647,-00000.037905,-00000.441947,-00000.001740,-00000.029305,00000.016110
0000000005441,00002.499422,00001.834574,00002.005776,00002.568099,00002.655717,00002.600421,00002.685238,00003.344826,00002.821699,00002.021794,-00000.393773,-00000.038733,-00000.440961,-00000.001972,-00000.029665,00000.016003
0000000005442,00002.498577,00001.834966,00002.002361,00002.568001,00002.655950,00002.600801,00002.685119,00003.345031,00002.821608,00002.021256,-00000.396172,-00000.039887,-00000.439718,-00000.002206,-00000.030027,00000.015891
0000000005443,00002.497444,00001.834956,00001.998114,00002.567156,00002.655894,00002.600838,00002.685015,00003.345203,00002.821501,00002.020457,-00000.399070,-00000.041318,-00000.438153,-00000.002767,-00000.030696,00000.015800
0000000005444,00002.495999,00001.834927,00001.992668,00002.565983,00002.655729,00002.600437,00002.684914,00003.344652,00002.821061,00002.018548,-00000.402927,-00000.043388,-00000.436369,-00000.002967,-00000.031729,00000.015705
0000000005445,00002.494309,00001.835281,00001.986876,00002.564901,00002.655681,00002.600105,00002.685189,00003.344072,00002.821332,00002.016054,-00000.407208,-00000.045695,-00000.433949,-00000.003081,-00000.033024,00000.015628
0000000005446,00002.492716,00001.835257,00001.981150,00002.563177,00002.655904,00002.599764,00002.685102,00003.343965,00002.820958,00002.012615,-00000.412305,-00000.047820,-00000.430979,-00000.003251,-00000.034267,00000.015546
0000000005447,00002.490915,00001.835558,00001.975494,00002.561168,00002.656226,00002.599481,00002.684973,00003.343835,00002.820463,00002.008678,-00000.417401,-00000.049058,-00000.428193,-00000.003712,-00000.035369,00000.015481
0000000005448,00002.489196,00001.835537,00001.970620,00002.559338,00002.656415,00002.599553,00002.684900,00003.344107,00002.820144,00002.005025,-00000.422103,-00000.050142,-00000.426028,-00000.004582,-00000.036790,00000.015411
0000000005449,00002.487299,00001.835793,00001.965442,00002.558352,00002.655964,00002.599313,00002.684790,00003.343633,00002.820086,00002.001310,-00000.426804,-00000.050833,-00000.423656,-00000.005336,-00000.037729,00000.015355
0000000005450,00002.485473,00001.836139,00001.960568,00002.557157,00002.655762,00002.599011,00002.684728,00003.343139,00002.820178,00001.997475,-00000.432258,-00000.050667,-00000.421087,-00000.006077,-00000.038212,00000.015297
0000000005451,00002.483859,00001.836357,00001.956160,00002.556318,00002.655741,00002.598807,00002.684997,00003.342735,00002.820128,00001.993950,-00000.438799,-00000.050167,-00000.417617,-00000.005994,-00000.038649,00000.015249
0000000005452,00002.482304,00001.836651,00001.952010,00002.554938,00002.655569,00002.598550,00002.684944,00003.342678,00002.819843,00001.991047,-00000.445981,-00000.048938,-00000.413979,-00000.005899,-00000.039423,00000.014836
0000000005453,00002.480204,00001.836836,00001.948257,00002.553861,00002.655914,00002.598013,00002.685173,00003.342334,00002.819438,00001.988047,-00000.453364,-00000.047424,-00000.410662,-00000.005828,-00000.040520,00000.014795
0000000005454,00002.478155,00001.836724,00001.945087,00002.553049,00002.655768,00002.597795,00002.685128,00003.342285,00002.819196,00001.985576,-00000.460930,-00000.046377,-00000.407928,-00000.006110,-00000.041905,00000.014807
0000000005455,00002.476005,00001.836882,00001.941530,00002.551770,00002.655698,00002.597338,00002.685323,00003.341993,00002.818851,00001.983021,-00000.469028,-00000.045814,-00000.405104,-00000.006050,-00000.042839,00000.015135
0000000005456,00002.474623,00001.836786,00001.938468,00002.550715,00002.655574,00002.597151,00002.685284,00003.341951,00002.818281,00001.980918,-00000.476920,-00000.045285,-00000.402051,-00000.005564,-00000.043655,00000.015507
0000000005457,00002.473518,00001.836558,00001.935077,00002.549263,00002.655152,00002.597125,00002.685088,00003.342065,00002.817625,00001.978743,-00000.485266,-00000.045169,-00000.398921,-00000.004788,-00000.044088,00000.015787
0000000005458,00002.472342,00001.836839,00001.931746,00002.548003,00002.655409,00002.596967,00002.685055,00003.342029,00002.817140,00001.976227,-00000.493435,-00000.044719,-00000.395596,-00000.003649,-00000.044057,00000.016104
0000000005459,00002.471764,00001.837370,00001.928496,00002.546767,00002.655412,00002.596582,00002.684887,00003.341763,00002.816582,00001.973650,-00000.501628,-00000.044257,-00000.392569,-00000.002262,-00000.043699,00000.015979
0000000005460,00002.471489,00001.837610,00001.925297,00002.545694,00002.655268,00002.596447,00002.684859,00003.341733,00002.816169,00001.971145,-00000.510397,-00000.044237,-00000.389739,-00000.001292,-00000.042585,00000.015886
0000000005461,00002.471722,00001.837699,00001.921805,00002.544279,00002.655271,00002.596482,00002.684717,00003.341869,00002.815694,00001.968589,-00000.520999,-00000.043843,-00000.386799,-00000.000111,-00000.041192,00000.016142
0000000005462,00002.471850,00001.837903,00001.917630,00002.543003,00002.655149,00002.596367,00002.684693,00003.341844,00002.815342,00001.965731,-00000.533906,-00000.043101,-00000.383301,00000.001440,-00000.040243,00000.016426
0000000005463,00002.472412,00001.837979,00001.912118,00002.541436,00002.654788,00002.596397,00002.684209,00003.341597,00002.814575,00001.963192,-00000.548011,-00000.042040,-00000.379710,00000.003170,-00000.040146,00000.016644
0000000005464,00002.472521,00001.838153,00001.906024,00002.539624,00002.654684,00002.595573,00002.684189,00003.340850,00002.814276,00001.961121,-00000.562627,-00000.041408,-00000.376733,00000.004853,-00000.040426,00000.016886
0000000005465,00002.472636,00001.838581,00001.900243,00002.537564,00002.654740,00002.594873,00002.684502,00003.340640,00002.813622,00001.959323,-00000.577899,-00000.040868,-00000.373313,00000.006327,-00000.041069,00000.017072
0000000005466,00002.472729,00001.839091,00001.894331,00002.535658,00002.654288,00002.593809,00002.684485,00003.339640,00002.813005,00001.956835,-00000.593969,-00000.040692,-00000.369689,00000.008122,-00000.041671,00000.016914
0000000005467,00002.472827,00001.839455,00001.889046,00002.533905,00002.653611,00002.593576,00002.684389,00003.339099,00002.812448,00001.954941,-00000.610236,-00000.040958,-00000.366778,00000.009739,-00000.042218,00000.016710
0000000005468,00002.472907,00001.839890,00001.883650,00002.532283,00002.652863,00002.593033,00002.684374,00003.338974,00002.811923,00001.952823,-00000.626456,-00000.041535,-00000.364419,00000.010905,-00000.043093,00000.016213
0000000005469,00002.472990,00001.840200,00001.878789,00002.530790,00002.652286,00002.592472,00002.684293,00003.338513,00002.811449,00001.950847,-00000.642844,-00000.042124,-00000.362304,00000.011919,-00000.043559,00000.015676
0000000005470,00002.472695,00001.840570,00001.873832,00002.529046,00002.651650,00002.591647,00002.684280,00003.337681,00002.811002,00001.948682,-00000.660280,-00000.042977,-00000.359933,00000.013637,-00000.043215,00000.014891
0000000005471,00002.472766,00001.840833,00001.868605,00002.527050,00002.651159,00002.591169,00002.684210,00003.337288,00002.809148,00001.947000,-00000.679309,-00000.044567,-00000.356681,00000.015589,-00000.041072,00000.014434
0000000005472,00002.472514,00001.841148,00001.863297,00002.524477,00002.650254,00002.590104,00002.683837,00003.336580,00002.806953,00001.945156,-00000.698869,-00000.046745,-00000.353574,00000.017051,-00000.038603,00000.014490
0000000005473,00002.471849,00001.841373,00001.857759,00002.522052,00002.649473,00002.588609,00002.683778,00003.335520,00002.805374,00001.942999,-00000.717971,-00000.049549,-00000.350805,00000.017987,-00000.036416,00000.014827
0000000005474,00002.471272,00001.841641,00001.852152,00002.519862,00002.648704,00002.586976,00002.683823,00003.334917,00002.803506,00001.941430,-00000.737162,-00000.052491,-00000.348161,00000.018506,-00000.034314,00000.015238
0000000005475,00002.470343,00001.841832,00001.846349,00002.517797,00002.647313,00002.585704,00002.683772,00003.334378,00002.802162,00001.939593,-00000.756689,-00000.055242,-00000.345441,00000.019666,-00000.032089,00000.015162
0000000005476,00002.470215,00001.842061,00001.840850,00002.515933,00002.645569,00002.585040,00002.683448,00003.333865,00002.800571,00001.937894,-00000.776291,-00000.057746,-00000.342827,00000.021922,-00000.029937,00000.014786
0000000005477,00002.469787,00001.842223,00001.835910,00002.514175,00002.644023,00002.583593,00002.683042,00003.333043,00002.799064,00001.935605,-00000.794729,-00000.060088,-00000.340874,00000.024360,-00000.027680,00000.014358
0000000005478,00002.469315,00001.842055,00001.831592,00002.511862,00002.642538,00002.581940,00002.682766,00003.332606,00002.797710,00001.933796,-00000.812141,-00000.061857,-00000.339374,00000.026281,-00000.026211,00000.014039
0000000005479,00002.469313,00001.842193,00001.828475,00002.510003,00002.640859,00002.580346,00002.682058,00003.332632,00002.796427,00001.932211,-00000.829651,-00000.063851,-00000.337712,00000.027994,-00000.026104,00000.013674
0000000005480,00002.469274,00001.842050,00001.825161,00002.508397,00002.639233,00002.578938,00002.681460,00003.332623,00002.795275,00001.930670,-00000.847377,-00000.065720,-00000.335709,00000.029992,-00000.025941,00000.013402
0000000005481,00002.469273,00001.842531,00001.822145,00002.506815,00002.638166,00002.577581,00002.681220,00003.331919,00002.794545,00001.929321,-00000.864822,-00000.067779,-00000.333932,00000.032175,-00000.025850,00000.013455
0000000005482,00002.469240,00001.842771,00001.819324,00002.505085,00002.637144,00002.576382,00002.681073,00003.331548,00002.793201,00001.928009,-00000.881726,-00000.070096,-00000.332590,00000.034239,-00000.025712,00000.013949
0000000005483,00002.468876,00001.842818,00001.816394,00002.503737,00002.635873,00002.575590,00002.680869,00003.330950,00002.792580,00001.926498,-00000.898029,-00000.072212,-00000.331439,00000.036098,-00000.025271,00000.014357
0000000005484,00002.468847,00001.843386,00001.813630,00002.502990,00002.634640,00002.574933,00002.680744,00003.330271,00002.792162,00001.925381,-00000.913508,-00000.074185,-00000.330297,00000.037855,-00000.025154,00000.014777
0000000005485,00002.468900,00001.844151,00001.811498,00002.501843,00002.634284,00002.574258,00002.680933,00003.329761,00002.791633,00001.924457,-00000.927386,-00000.077074,-00000.330043,00000.039437,-00000.025142,00000.015124
0000000005486,00002.469239,00001.844634,00001.810233,00002.500844,00002.634323,00002.574424,00002.681190,00003.329547,00002.791640,00001.923870,-00000.939112,-00000.080567,-00000.330884,00000.040933,-00000.025041,00000.015482
0000000005487,00002.469284,00001.845285,00001.809506,00002.499868,00002.634382,00002.574212,00002.681351,00003.329113,00002.792278,00001.923083,-00000.948750,-00000.083390,-00000.331756,00000.041917,-00000.025031,00000.016140
0000000005488,00002.469572,00001.845697,00001.808793,00002.499018,00002.634053,00002.573991,00002.681206,00003.329293,00002.793009,00001.922220,-00000.957281,-00000.086001,-00000.332110,00000.042465,-00000.024583,00000.016445
0000000005489,00002.469611,00001.846251,00001.808174,00002.498549,00002.633741,00002.573448,00002.681343,00003.328923,00002.793916,00001.921550,-00000.965123,-00000.087679,-00000.332127,00000.043303,-00000.024211,00000.016643
0000000005490,00002.469856,00001.846964,00001.807929,00002.497463,00002.633823,00002.573259,00002.681221,00003.329077,00002.794538,00001.921178,-00000.972385,-00000.088813,-00000.332065,00000.044132,-00000.023830,00000.016902
0000000005491,00002.469889,00001.847436,00001.807765,00002.496701,00002.633194,00002.573160,00002.680974,00003.329125,00002.794947,00001.920608,-00000.978699,-00000.089878,-00000.332080,00000.044482,-00000.023876,00000.017070
0000000005492,00002.469735,00001.847681,00001.807557,00002.495776,00002.632901,00002.572637,00002.680870,00003.328892,00002.795476,00001.919929,-00000.984881,-00000.090481,-00000.332027,00000.044099,-00000.024640,00000.017291
0000000005493,00002.469400,00001.847357,00001.807417,00002.494765,00002.632729,00002.572189,00002.680297,00003.329296,00002.795824,00001.919806,-00000.992069,-00000.090299,-00000.330951,00000.043672,-00000.025768,00000.017797
0000000005494,00002.468906,00001.847565,00001.807240,00002.493977,00002.632480,00002.571381,00002.680208,00003.329099,00002.795913,00001.919228,-00001.000235,-00000.089361,-00000.329092,00000.043709,-00000.026418,00000.017985
0000000005495,00002.468621,00001.847289,00001.807484,00002.493479,00002.632333,00002.571000,00002.679721,00003.329442,00002.796209,00001.918761,-00001.008168,-00000.088118,-00000.327087,00000.044071,-00000.026652,00000.018053
0000000005496,00002.467838,00001.847466,00001.807696,00002.493172,00002.632484,00002.570675,00002.679645,00003.329274,00002.796284,00001.917906,-00001.015482,-00000.086594,-00000.325505,00000.044466,-00000.026480,00000.018213
0000000005497,00002.467233,00001.847232,00001.807541,00002.492748,00002.631996,00002.570351,00002.679230,00003.329204,00002.796536,00001.917145,-00001.022962,-00000.085173,-00000.323799,00000.045137,-00000.025954,00000.018271
0000000005498,00002.466566,00001.847382,00001.806995,00002.492486,00002.631761,00002.569711,00002.679166,00003.328698,00002.796963,00001.916417,-00001.030277,-00000.084239,-00000.321726,00000.045835,-00000.025808,00000.018407
0000000005499,00002.466413,00001.847183,00001.806863,00002.491762,00002.631709,00002.569435,00002.678813,00003.329001,00002.796815,00001.916132,-00001.037369,-00000.083755,-00000.319911,00000.046769,-00000.025723,00000.018456
0000000005500,00002.465483,00001.847311,00001.806399,00002.491539,00002.631872,00002.569253,00002.678758,00003.328933,00002.797178,00001.915513,-00001.043596,-00000.084047,-00000.318509,00000.047726,-00000.025235,00000.018572
0000000005501,00002.465353,00001.847141,00001.805924,00002.490923,00002.632190,00002.568655,00002.678820,00003.329191,00002.797052,00001.914908,-00001.048546,-00000.085087,-00000.318052,00000.048521,-00000.024437,00000.018614
0000000005502,00002.465286,00001.847250,00001.805529,00002.490371,00002.632692,00002.568138,00002.678773,00003.329496,00002.797361,00001.914380,-00001.052759,-00000.086424,-00000.317947,00000.049337,-00000.023659,00000.018713
0000000005503,00002.465176,00001.847468,00001.805124,00002.490209,00002.632963,00002.567629,00002.678826,00003.329353,00002.797617,00001.913865,-00001.055884,-00000.087309,-00000.317921,00000.050013,-00000.022980,00000.018749
0000000005504,00002.465119,00001.847561,00001.804788,00002.490101,00002.632664,00002.567551,00002.678786,00003.329612,00002.798243,00001.913416,-00001.058382,-00000.088447,-00000.318194,00000.050344,-00000.022318,00000.018833
0000000005505,00002.464662,00001.847747,00001.803718,00002.489601,00002.632532,00002.566392,00002.678469,00003.329490,00002.798460,00001.912252,-00001.063219,-00000.090652,-00000.318172,00000.050558,-00000.021377,00000.018863
0000000005506,00002.463889,00001.847826,00001.801255,00002.488784,00002.632641,00002.565238,00002.678435,00003.329348,00002.798630,00001.911507,-00001.070788,-00000.093072,-00000.316953,00000.050840,-00000.021176,00000.018572
0000000005507,00002.463137,00001.847984,00001.798893,00002.488721,00002.632528,00002.564251,00002.678527,00003.328882,00002.798453,00001.910878,-00001.079622,-00000.095674,-00000.315120,00000.051021,-00000.021463,00000.018235
0000000005508,00002.462115,00001.848051,00001.797159,00002.488388,00002.632621,00002.562906,00002.678498,00003.328398,00002.797509,00001.910244,-00001.088605,-00000.098460,-00000.313358,00000.050898,-00000.022744,00000.017987
0000000005509,00002.461112,00001.848186,00001.795511,00002.487608,00002.632525,00002.561703,00002.678577,00003.328001,00002.796632,00001.909709,-00001.096851,-00000.101401,-00000.312523,00000.050690,-00000.024802,00000.017700
0000000005510,00002.460243,00001.848243,00001.794034,00002.487325,00002.631878,00002.560920,00002.678189,00003.327952,00002.795829,00001.908807,-00001.104135,-00000.103773,-00000.312110,00000.050586,-00000.026255,00000.017489
0000000005511,00002.459752,00001.848357,00001.792269,00002.487387,00002.631796,00002.560622,00002.678256,00003.327977,00002.795445,00001.908351,-00001.109704,-00000.105188,-00000.312125,00000.050771,-00000.026193,00000.017245
0000000005512,00002.459374,00001.848406,00001.790649,00002.487146,00002.631246,00002.559956,00002.677926,00003.327573,00002.795124,00001.907583,-00001.113728,-00000.106481,-00000.312500,00000.051045,-00000.024890,00000.017428
0000000005513,00002.459319,00001.848504,00001.789146,00002.486836,00002.631176,00002.559339,00002.677258,00003.327956,00002.794798,00001.906832,-00001.116655,-00000.106961,-00000.312875,00000.051566,-00000.023749,00000.017583
0000000005514,00002.458635,00001.848545,00001.787767,00002.486630,00002.630707,00002.558772,00002.676977,00003.327975,00002.794887,00001.905453,-00001.118266,-00000.107336,-00000.313194,00000.052162,-00000.022640,00000.018102
0000000005515,00002.458951,00001.848266,00001.786851,00002.486366,00002.630648,00002.558609,00002.676408,00003.328302,00002.794972,00001.904814,-00001.118218,-00000.107381,-00000.313877,00000.051879,-00000.021306,00000.018596
0000000005516,00002.459457,00001.848301,00001.786040,00002.486192,00002.630612,00002.558852,00002.676169,00003.328680,00002.795411,00001.904002,-00001.117051,-00000.107338,-00000.314874,00000.051298,-00000.020362,00000.019401
0000000005517,00002.459726,00001.848426,00001.785622,00002.486330,00002.630562,00002.559077,00002.676047,00003.328958,00002.796209,00001.903095,-00001.114833,-00000.107376,-00000.316180,00000.049970,-00000.020315,00000.020184
0000000005518,00002.459794,00001.848456,00001.786020,00002.486181,00002.631256,00002.559283,00002.675844,00003.328918,00002.796945,00001.902404,-00001.111663,-00000.107340,-00000.317755,00000.048749,-00000.020599,00000.020869
0000000005519,00002.460386,00001.848562,00001.786753,00002.486299,00002.631939,00002.560563,00002.675740,00003.329518,00002.797987,00001.901995,-00001.107961,-00000.107372,-00000.319230,00000.047618,-00000.020559,00000.021537
0000000005520,00002.460443,00001.848950,00001.787092,00002.486897,00002.632531,00002.561827,00002.676292,00003.329846,00002.799340,00001.901770,-00001.104173,-00000.106979,-00000.320933,00000.046579,-00000.020076,00000.022119
0000000005521,00002.460584,00001.849040,00001.787716,00002.486635,00002.633112,00002.562554,00002.676567,00003.329993,00002.800227,00001.901421,-00001.101385,-00000.107006,-00000.321826,00000.045617,-00000.018953,00000.022688
0000000005522,00002.461359,00001.849008,00001.788004,00002.486782,00002.633253,00002.563630,00002.676674,00003.330273,00002.801378,00001.901229,-00001.099249,-00000.107034,-00000.321824,00000.044732,-00000.017816,00000.022821
0000000005523,00002.461479,00001.849448,00001.788172,00002.486921,00002.633747,00002.564612,00002.677271,00003.330036,00002.802496,00001.900933,-00001.097601,-00000.106695,-00000.321859,00000.044275,-00000.016860,00000.022942
0000000005524,00002.461776,00001.849783,00001.788781,00002.487409,00002.634230,00002.565891,00002.677725,00003.330274,00002.803477,00001.900769,-00001.096145,-00000.106355,-00000.321858,00000.043885,-00000.016255,00000.023055
0000000005525,00002.462241,00001.850158,00001.789287,00002.487890,00002.634651,00002.567089,00002.678233,00003.330435,00002.804065,00001.900517,-00001.095105,-00000.106066,-00000.322250,00000.043859,-00000.015804,00000.022796
0000000005526,00002.462856,00001.850443,00001.790167,00002.487580,00002.635425,00002.568178,00002.678257,00003.331000,00002.804537,00001.900378,-00001.094228,-00000.105777,-00000.322612,00000.043890,-00000.014926,00000.022529
0000000005527,00002.462889,00001.850762,00001.790598,00002.487264,00002.636146,00002.568835,00002.678689,00003.331137,00002.805038,00001.900526,-00001.093343,-00000.105532,-00000.322946,00000.043867,-00000.014543,00000.022308
0000000005528,00002.463413,00001.850642,00001.790985,00002.487363,00002.636079,00002.569762,00002.678710,00003.331256,00002.805440,00001.900408,-00001.092597,-00000.104923,-00000.323254,00000.044256,-00000.014158,00000.022444
0000000005529,00002.463441,00001.850914,00001.790989,00002.487457,00002.636693,00002.570684,00002.679078,00003.331372,00002.806229,00001.900171,-00001.091480,-00000.104351,-00000.323175,00000.044237,-00000.014194,00000.022619
0000000005530,00002.463887,00001.851174,00001.790593,00002.487178,00002.636999,00002.570748,00002.679095,00003.331473,00002.806208,00001.899707,-00001.090482,-00000.104921,-00000.323800,00000.043843,-00000.013867,00000.022735
0000000005531,00002.464274,00001.851043,00001.789871,00002.487258,00002.636796,00002.571170,00002.679045,00003.331572,00002.806518,00001.899143,-00001.090257,-00000.105522,-00000.324096,00000.043464,-00000.013535,00000.022883
0000000005532,00002.464654,00001.850902,00001.788808,00002.487021,00002.636694,00002.571224,00002.679060,00003.331658,00002.806863,00001.898748,-00001.090496,-00000.106370,-00000.324265,00000.043491,-00000.012893,00000.022619
0000000005533,00002.465306,00001.850670,00001.786563,00002.486161,00002.637159,00002.571267,00002.678668,00003.331816,00002.806694,00001.897931,-00001.091959,-00000.109056,-00000.325387,00000.043191,-00000.012790,00000.022884
0000000005534,00002.465224,00001.850937,00001.785005,00002.485910,00002.637684,00002.571264,00002.678995,00003.331888,00002.807335,00001.897522,-00001.092776,-00000.110835,-00000.326273,00000.042500,-00000.013692,00000.022991
0000000005535,00002.465136,00001.850835,00001.783926,00002.485792,00002.637918,00002.571303,00002.679059,00003.332313,00002.807639,00001.897236,-00001.093204,-00000.112430,-00000.327067,00000.041848,-00000.014153,00000.023109
0000000005536,00002.464703,00001.850700,00001.782599,00002.485579,00002.637639,00002.571301,00002.678612,00003.332011,00002.807822,00001.895437,-00001.094263,-00000.113944,-00000.327822,00000.041622,-00000.013470,00000.022838
0000000005537,00002.464266,00001.850613,00001.780955,00002.485478,00002.637476,00002.570971,00002.678667,00003.331285,00002.807718,00001.893380,-00001.096078,-00000.115302,-00000.328135,00000.041793,-00000.012774,00000.022575
0000000005538,00002.464613,00001.850424,00001.778789,00002.484848,00002.637463,00002.571415,00002.678696,00003.331498,00002.807785,00001.889371,-00001.099613,-00000.117748,-00000.329044,00000.041746,-00000.011600,00000.022120
0000000005539,00002.464554,00001.850326,00001.777465,00002.484747,00002.636898,00002.571413,00002.678681,00003.331225,00002.807971,00001.887395,-00001.100944,-00000.119208,-00000.330007,00000.040802,-00000.011522,00000.022287
0000000005540,00002.464496,00001.849817,00001.776544,00002.483863,00002.636245,00002.570702,00002.678345,00003.331810,00002.807638,00001.884276,-00001.107384,-00000.124338,-00000.331726,00000.038726,-00000.010897,00000.022601
0000000005541,00002.464126,00001.849763,00001.775739,00002.483129,00002.636515,00002.570407,00002.678433,00003.331525,00002.807528,00001.882690,-00001.112696,-00000.126774,-00000.332129,00000.038730,-00000.010368,00000.022385
0000000005542,00002.463769,00001.850063,00001.773260,00002.482486,00002.635919,00002.569483,00002.678134,00003.331340,00002.807623,00001.879545,-00001.123192,-00000.131141,-00000.332081,00000.038775,-00000.009914,00000.021958
0000000005543,00002.463786,00001.850357,00001.772405,00002.482161,00002.635833,00002.569636,00002.678124,00003.331442,00002.807421,00001.878380,-00001.127607,-00000.132731,-00000.332058,00000.038811,-00000.010691,00000.022115
0000000005544,00002.463479,00001.850932,00001.770422,00002.482386,00002.635338,00002.569915,00002.678234,00003.330907,00002.807895,00001.876601,-00001.134435,-00000.135124,-00000.332383,00000.038845,-00000.012367,00000.022454
0000000005545,00002.463931,00001.850845,00001.769662,00002.482506,00002.635288,00002.570404,00002.677971,00003.331047,00002.807773,00001.875986,-00001.136578,-00000.137098,-00000.333457,00000.039210,-00000.011779,00000.022630
0000000005546,00002.465054,00001.851347,00001.768450,00002.482318,00002.636688,00002.570932,00002.678466,00003.331659,00002.807832,00001.874200,-00001.136993,-00000.140656,-00000.336114,00000.039547,-00000.010027,00000.023618
0000000005547,00002.465373,00001.851529,00001.767606,00002.482797,00002.636574,00002.571026,00002.678769,00003.331405,00002.808025,00001.872347,-00001.136975,-00000.142617,-00000.337289,00000.039515,-00000.009271,00000.024024
0000000005548,00002.465556,00001.851929,00001.765974,00002.482565,00002.637057,00002.570373,00002.679146,00003.331238,00002.808046,00001.869289,-00001.138057,-00000.146080,-00000.338288,00000.039444,-00000.008618,00000.024079
0000000005549,00002.465789,00001.851775,00001.765196,00002.482330,00002.637243,00002.570420,00002.679247,00003.331279,00002.808288,00001.868808,-00001.138736,-00000.147606,-00000.338542,00000.039406,-00000.008664,00000.024142
0000000005550,00002.466272,00001.852139,00001.763923,00002.482531,00002.637627,00002.570582,00002.679552,00003.330767,00002.808633,00001.867727,-00001.139193,-00000.149602,-00000.338992,00000.039351,-00000.009915,00000.024543
0000000005551,00002.466878,00001.851888,00001.763765,00002.482563,00002.637765,00002.571103,00002.679376,00003.330974,00002.808389,00001.866376,-00001.138310,-00000.150503,-00000.339554,00000.039694,-00000.010329,00000.024893
0000000005552,00002.467047,00001.852086,00001.763201,00002.482702,00002.638317,00002.571446,00002.679812,00003.330695,00002.808564,00001.863905,-00001.137405,-00000.150937,-00000.339737,00000.040393,-00000.009892,00000.024884
0000000005553,00002.467344,00001.852041,00001.762587,00002.482484,00002.638541,00002.572544,00002.680034,00003.330633,00002.808505,00001.859563,-00001.136972,-00000.150623,-00000.338195,00000.042368,-00000.008421,00000.024811
0000000005554,00002.467474,00001.852168,00001.762163,00002.482871,00002.638641,00002.573284,00002.679852,00003.330836,00002.808637,00001.857294,-00001.137730,-00000.149933,-00000.336951,00000.043234,-00000.007795,00000.024756
0000000005555,00002.468433,00001.851747,00001.761341,00002.483354,00002.638454,00002.574472,00002.679705,00003.331116,00002.808567,00001.853572,-00001.143053,-00000.147592,-00000.334009,00000.045512,-00000.008450,00000.025429
0000000005556,00002.468483,00001.851606,00001.760584,00002.483848,00002.638586,00002.574584,00002.680074,00003.330844,00002.808775,00001.852827,-00001.146324,-00000.145991,-00000.333079,00000.046515,-00000.009260,00000.025732
0000000005557,00002.468566,00001.851270,00001.759634,00002.484186,00002.638407,00002.575215,00002.680256,00003.330397,00002.809048,00001.851583,-00001.151820,-00000.143147,-00000.332164,00000.048305,-00000.010423,00000.026622
0000000005558,00002.468600,00001.851085,00001.759426,00002.484115,00002.638523,00002.575672,00002.680144,00003.330214,00002.809129,00001.850701,-00001.153349,-00000.141524,-00000.331388,00000.049103,-00000.010045,00000.027214
0000000005559,00002.468637,00001.850983,00001.759187,00002.484473,00002.638618,00002.576116,00002.680412,00003.330379,00002.809280,00001.849436,-00001.153960,-00000.140001,-00000.330660,00000.049829,-00000.009598,00000.027742
0000000005560,00002.469422,00001.850376,00001.759532,00002.484355,00002.638797,00002.576882,00002.680181,00003.330727,00002.808752,00001.846519,-00001.150339,-00000.136960,-00000.329742,00000.050401,-00000.008897,00000.027971
0000000005561,00002.469393,00001.850296,00001.759328,00002.484667,00002.638881,00002.576850,00002.680100,00003.330540,00002.809228,00001.844846,-00001.147108,-00000.135783,-00000.329906,00000.050307,-00000.008261,00000.028091
0000000005562,00002.469341,00001.849791,00001.758927,00002.484520,00002.639022,00002.576057,00002.680279,00003.330501,00002.809433,00001.842249,-00001.138702,-00000.134095,-00000.331640,00000.049720,-00000.007395,00000.028267
0000000005563,00002.469318,00001.849728,00001.759459,00002.484478,00002.639080,00002.576075,00002.680127,00003.330658,00002.809881,00001.840889,-00001.134396,-00000.133201,-00000.332797,00000.049233,-00000.007119,00000.028330
0000000005564,00002.468914,00001.848945,00001.759764,00002.484360,00002.638103,00002.575760,00002.679576,00003.330601,00002.810352,00001.838518,-00001.127155,-00000.130445,-00000.333738,00000.048443,-00000.008600,00000.028834
0000000005565,00002.468587,00001.848633,00001.759947,00002.484289,00002.637846,00002.575477,00002.679526,00003.330803,00002.810737,00001.837485,-00001.124163,-00000.129002,-00000.333956,00000.048122,-00000.009497,00000.029271
0000000005566,00002.467929,00001.848013,00001.760905,00002.484199,00002.637414,00002.575613,00002.678701,00003.331450,00002.810718,00001.835620,-00001.118080,-00000.125782,-00000.334362,00000.046771,-00000.009899,00000.029997
0000000005567,00002.467606,00001.847711,00001.760916,00002.484173,00002.637650,00002.575262,00002.679070,00003.331184,00002.810731,00001.834781,-00001.115016,-00000.124033,-00000.334187,00000.046888,-00000.009846,00000.029936
0000000005568,00002.466731,00001.846865,00001.761730,00002.483737,00002.637248,00002.574704,00002.679402,00003.331412,00002.811076,00001.833318,-00001.108479,-00000.120827,-00000.334196,00000.046809,-00000.010558,00000.029838
0000000005569,00002.466529,00001.846364,00001.762469,00002.483747,00002.637044,00002.574484,00002.679054,00003.331491,00002.811051,00001.832681,-00001.105027,-00000.119365,-00000.334747,00000.046240,-00000.011258,00000.029799
0000000005570,00002.465814,00001.846081,00001.762689,00002.483737,00002.636732,00002.574768,00002.678663,00003.331310,00002.811348,00001.831531,-00001.099250,-00000.115764,-00000.335399,00000.045169,-00000.012849,00000.030084
0000000005571,00002.465715,00001.845895,00001.763376,00002.484084,00002.637340,00002.574860,00002.678998,00003.331826,00002.811256,00001.831430,-00001.096525,-00000.113651,-00000.335862,00000.044669,-00000.013750,00000.030047
0000000005572,00002.464758,00001.845319,00001.763824,00002.484024,00002.637347,00002.575087,00002.678978,00003.332321,00002.811160,00001.830465,-00001.091649,-00000.109086,-00000.335985,00000.043106,-00000.014971,00000.030295
0000000005573,00002.463962,00001.845272,00001.764016,00002.484393,00002.637529,00002.574852,00002.679026,00003.332007,00002.811507,00001.829663,-00001.089474,-00000.106677,-00000.335699,00000.042809,-00000.014940,00000.030171
0000000005574,00002.462178,00001.844789,00001.766546,00002.484287,00002.637871,00002.575081,00002.679002,00003.332113,00002.811373,00001.828962,-00001.085284,-00000.099521,-00000.334032,00000.042248,-00000.014169,00000.030038
0000000005575,00002.459677,00001.844411,00001.768359,00002.484601,00002.638029,00002.575138,00002.679000,00003.332484,00002.811734,00001.828274,-00001.083603,-00000.094543,-00000.332350,00000.041623,-00000.014208,00000.030378
0000000005576,00002.453451,00001.843330,00001.772057,00002.484464,00002.638296,00002.574961,00002.678979,00003.333245,00002.811566,00001.826690,-00001.081374,-00000.083024,-00000.329004,00000.039787,-00000.014272,00000.030940
0000000005577,00002.450164,00001.842993,00001.773528,00002.484429,00002.638409,00002.574770,00002.678963,00003.333260,00002.811835,00001.825787,-00001.080387,-00000.077698,-00000.327738,00000.038569,-00000.013573,00000.031172
0000000005578,00002.443901,00001.842486,00001.776095,00002.485043,00002.637894,00002.574285,00002.678948,00003.332816,00002.812378,00001.823485,-00001.079000,-00000.068321,-00000.325441,00000.036462,-00000.011917,00000.031616
0000000005579,00002.440589,00001.841573,00001.776850,00002.484920,00002.637320,00002.574012,00002.678584,00003.332791,00002.812283,00001.821763,-00001.078951,-00000.063835,-00000.324040,00000.035550,-00000.011323,00000.031825
0000000005580,00002.434662,00001.840551,00001.778923,00002.484735,00002.637692,00002.573640,00002.677900,00003.332780,00002.812034,00001.818608,-00001.079954,-00000.052529,-00000.319753,00000.033166,-00000.010728,00000.032172
0000000005581,00002.428527,00001.839319,00001.780324,00002.484941,00002.636921,00002.572598,00002.677317,00003.333134,00002.812185,00001.814834,-00001.081170,-00000.041090,-00000.315741,00000.030774,-00000.009858,00000.032830
0000000005582,00002.425558,00001.838933,00001.780734,00002.485247,00002.636348,00002.572551,00002.677408,00003.332725,00002.812426,00001.812938,-00001.081710,-00000.036369,-00000.314341,00000.029509,-00000.009847,00000.033315
0000000005583,00002.420052,00001.837941,00001.782229,00002.485014,00002.635776,00002.571671,00002.676899,00003.332361,00002.812518,00001.810370,-00001.082303,-00000.027696,-00000.312948,00000.026935,-00000.009834,00000.034165
0000000005584,00002.417409,00001.837377,00001.782896,00002.484903,00002.635343,00002.571264,00002.676762,00003.332348,00002.812423,00001.809248,-00001.082362,-00000.023680,-00000.311742,00000.026023,-00000.009831,00000.034538
0000000005585,00002.412026,00001.836616,00001.784432,00002.484721,00002.635284,00002.570213,00002.676711,00003.332040,00002.812153,00001.806503,-00001.082858,-00000.015805,-00000.308921,00000.023968,-00000.009820,00000.035570
0000000005586,00002.409668,00001.836069,00001.785257,00002.484647,00002.634876,00002.569975,00002.676459,00003.332097,00002.812047,00001.805288,-00001.083291,-00000.012321,-00000.307703,00000.022461,-00000.010176,00000.036595
0000000005587,00002.405799,00001.835140,00001.787530,00002.484503,00002.634524,00002.569478,00002.675728,00003.332189,00002.811833,00001.803494,-00001.084011,-00000.005409,-00000.306208,00000.020935,-00000.010840,00000.038046
0000000005588,00002.403851,00001.835109,00001.788196,00002.484435,00002.634210,00002.569227,00002.675651,00003.331864,00002.812091,00001.802540,-00001.083948,-00000.002360,-00000.305510,00000.020473,-00000.010784,00000.038485
0000000005589,00002.400485,00001.834323,00001.788944,00002.484322,00002.633594,00002.568116,00002.675403,00003.331628,00002.811870,00001.801518,-00001.082756,00000.002344,-00000.304704,00000.020331,-00000.010632,00000.038930
0000000005590,00002.397619,00001.833291,00001.789581,00002.483864,00002.632344,00002.565718,00002.674466,00003.331790,00002.811320,00001.800285,-00001.080291,00000.005261,-00000.304743,00000.020210,-00000.011227,00000.040760
0000000005591,00002.396380,00001.832641,00001.789975,00002.483879,00002.631365,00002.565030,00002.673608,00003.331820,00002.811318,00001.799507,-00001.079375,00000.006380,-00000.304999,00000.020130,-00000.011143,00000.041792
0000000005592,00002.393399,00001.832222,00001.790459,00002.483487,00002.630809,00002.563091,00002.673301,00003.331228,00002.811212,00001.798211,-00001.078863,00000.009059,-00000.304632,00000.020039,-00000.010938,00000.044284
0000000005593,00002.390861,00001.830777,00001.791233,00002.482427,00002.629973,00002.561078,00002.672676,00003.331087,00002.810397,00001.797832,-00001.078791,00000.011703,-00000.304320,00000.019236,-00000.011488,00000.046769
0000000005594,00002.389364,00001.829994,00001.791703,00002.481779,00002.629648,00002.560052,00002.672457,00003.331265,00002.810013,00001.797681,-00001.079865,00000.012274,-00000.304159,00000.019273,-00000.011699,00000.048039
0000000005595,00002.387063,00001.829243,00001.791930,00002.481336,00002.628985,00002.558128,00002.671596,00003.330756,00002.809739,00001.797019,-00001.082546,00000.014077,-00000.303554,00000.019310,-00000.012136,00000.049602
0000000005596,00002.385826,00001.828499,00001.792091,00002.481120,00002.628655,00002.557597,00002.671021,00003.330810,00002.809475,00001.796511,-00001.083378,00000.014889,-00000.303102,00000.019313,-00000.013135,00000.050322
0000000005597,00002.381875,00001.827971,00001.791897,00002.480412,00002.628139,00002.556401,00002.670735,00003.330731,00002.809281,00001.796022,-00001.089527,00000.015940,-00000.302654,00000.018618,-00000.014810,00000.051546
0000000005598,00002.378874,00001.827521,00001.789555,00002.479810,00002.627338,00002.555745,00002.669767,00003.330301,00002.808752,00001.794881,-00001.109274,00000.015747,-00000.299370,00000.022017,-00000.012245,00000.052951
0000000005599,00002.376882,00001.827333,00001.787455,00002.479384,00002.626441,00002.555153,00002.669343,00003.329793,00002.808466,00001.794215,-00001.122306,00000.015653,-00000.296585,00000.023781,-00000.010889,00000.053340
0000000005600,00002.375230,00001.827137,00001.785748,00002.478934,00002.625567,00002.554462,00002.668943,00003.329572,00002.808303,00001.793909,-00001.134791,00000.015582,-00000.294399,00000.024911,-00000.010424,00000.053422
0000000005601,00002.372492,00001.826811,00001.782869,00002.478189,00002.624059,00002.552644,00002.668241,00003.329314,00002.807557,00001.793082,-00001.154700,00000.015079,-00000.291617,00000.024834,-00000.011051,00000.053459
0000000005602,00002.370160,00001.826534,00001.780419,00002.477191,00002.623138,00002.551096,00002.667643,00003.329095,00002.806923,00001.792015,-00001.167658,00000.014288,-00000.290338,00000.024407,-00000.009407,00000.052766
0000000005603,00002.368832,00001.826418,00001.779386,00002.476983,00002.622894,00002.550467,00002.667382,00003.329045,00002.807208,00001.791559,-00001.171714,00000.013558,-00000.289762,00000.024451,-00000.008334,00000.052434
0000000005604,00002.367044,00001.825836,00001.777453,00002.476165,00002.623235,00002.548880,00002.667638,00003.329228,00002.807351,00001.790718,-00001.175612,00000.011905,-00000.289122,00000.023355,-00000.006732,00000.052619
0000000005605,00002.366177,00001.825733,00001.776919,00002.475928,00002.623393,00002.548348,00002.667682,00003.329421,00002.807575,00001.790334,-00001.176392,00000.011389,-00000.289410,00000.021919,-00000.006925,00000.052707
0000000005606,00002.364059,00001.825616,00001.775716,00002.475267,00002.622934,00002.547439,00002.667531,00003.329548,00002.808026,00001.790039,-00001.176691,00000.011509,-00000.289909,00000.019385,-00000.007710,00000.053214
0000000005607,00002.361893,00001.825516,00001.775055,00002.474704,00002.623269,00002.546665,00002.667764,00003.329657,00002.808410,00001.789424,-00001.175132,00000.012337,-00000.290698,00000.017228,-00000.008014,00000.054008
0000000005608,00002.361519,00001.825494,00001.775547,00002.474734,00002.623411,00002.546743,00002.667890,00003.329939,00002.808236,00001.789493,-00001.173325,00000.012889,-00000.291191,00000.015915,-00000.008200,00000.054366
0000000005609,00002.359731,00001.825412,00001.777451,00002.474613,00002.623675,00002.546073,00002.668070,00003.329627,00002.808589,00001.789323,-00001.169002,00000.014963,-00000.291426,00000.013186,-00000.008795,00000.054989
0000000005610,00002.359151,00001.825358,00001.778459,00002.474851,00002.623797,00002.546117,00002.667770,00003.329465,00002.808706,00001.789128,-00001.166886,00000.016800,-00000.291578,00000.011760,-00000.008857,00000.055260
0000000005611,00002.358440,00001.824571,00001.781018,00002.475439,00002.622915,00002.546265,00002.667242,00003.329223,00002.808989,00001.788286,-00001.163520,00000.020469,-00000.291030,00000.009285,-00000.008629,00000.055749
0000000005612,00002.357836,00001.824264,00001.783559,00002.476664,00002.623253,00002.546754,00002.667156,00003.329743,00002.809593,00001.787932,-00001.159929,00000.025770,-00000.290563,00000.007179,-00000.008797,00000.056167
0000000005613,00002.357415,00001.823936,00001.784891,00002.476889,00002.623419,00002.547197,00002.666905,00003.330022,00002.809309,00001.787752,-00001.158123,00000.029048,-00000.289973,00000.006266,-00000.008855,00000.056355
0000000005614,00002.356600,00001.823360,00001.786493,00002.477536,00002.623319,00002.547910,00002.666506,00003.330060,00002.809865,00001.787477,-00001.156786,00000.035612,-00000.288212,00000.004608,-00000.008264,00000.056682
0000000005615,00002.356573,00001.822745,00001.787201,00002.477924,00002.623114,00002.548196,00002.666349,00003.330253,00002.809872,00001.787375,-00001.156392,00000.038153,-00000.287450,00000.003860,-00000.007664,00000.056824
0000000005616,00002.356269,00001.822144,00001.787495,00002.478087,00002.622871,00002.548155,00002.666167,00003.330456,00002.809613,00001.787244,-00001.155284,00000.040475,-00000.286713,00000.003198,-00000.007398,00000.056960
0000000005617,00002.355624,00001.821472,00001.788710,00002.477830,00002.622853,00002.547274,00002.665878,00003.330066,00002.809398,00001.787045,-00001.152555,00000.045340,-00000.285438,00000.000908,-00000.007749,00000.058286
0000000005618,00002.354933,00001.821335,00001.789223,00002.477802,00002.622650,00002.547227,00002.666072,00003.329897,00002.809766,00001.786971,-00001.151343,00000.047853,-00000.284885,-00000.000306,-00000.007932,00000.058697
0000000005619,00002.354124,00001.820783,00001.789818,00002.477951,00002.622301,00002.547210,00002.665797,00003.329591,00002.809891,00001.786813,-00001.149200,00000.051984,-00000.284244,-00000.002075,-00000.007478,00000.059402
0000000005620,00002.353936,00001.820413,00001.790262,00002.478097,00002.622206,00002.547593,00002.665785,00003.329816,00002.810094,00001.786732,-00001.147891,00000.053262,-00000.284515,-00000.003063,-00000.007631,00000.059703
0000000005621,00002.352913,00001.819998,00001.790703,00002.478202,00002.622286,00002.547522,00002.665190,00003.329885,00002.810171,00001.785884,-00001.144810,00000.055138,-00000.283929,-00000.004059,-00000.007584,00000.060258
0000000005622,00002.352042,00001.819645,00001.791078,00002.478291,00002.622718,00002.547098,00002.665409,00003.329580,00002.810236,00001.785887,-00001.141099,00000.056009,-00000.283430,-00000.004181,-00000.007908,00000.060004
0000000005623,00002.352041,00001.819265,00001.791070,00002.478685,00002.622472,00002.547482,00002.665194,00003.329854,00002.810529,00001.785848,-00001.138902,00000.055853,-00000.283418,-00000.004609,-00000.008452,00000.060275
0000000005624,00002.352025,00001.818658,00001.791753,00002.478702,00002.622150,00002.547790,00002.665050,00003.330280,00002.810541,00001.786220,-00001.134255,00000.055529,-00000.283357,-00000.004650,-00000.009372,00000.061470
0000000005625,00002.351286,00001.818141,00001.791610,00002.478354,00002.622239,00002.547327,00002.664927,00003.329554,00002.810188,00001.786174,-00001.131388,00000.054891,-00000.282943,-00000.004321,-00000.011243,00000.062488
0000000005626,00002.351328,00001.817937,00001.791538,00002.478386,00002.622103,00002.547676,00002.664954,00003.329385,00002.810279,00001.786204,-00001.129947,00000.054026,-00000.282544,-00000.003623,-00000.012246,00000.062924
0000000005627,00002.351382,00001.817702,00001.791850,00002.478421,00002.622314,00002.548021,00002.664822,00003.330025,00002.809888,00001.786497,-00001.128584,00000.053622,-00000.282228,-00000.002953,-00000.013562,00000.063354
0000000005628,00002.350738,00001.817690,00001.792418,00002.478477,00002.622741,00002.548249,00002.665096,00003.329700,00002.810358,00001.786772,-00001.125109,00000.052541,-00000.281982,-00000.001425,-00000.015899,00000.063366
0000000005629,00002.350916,00001.817318,00001.792538,00002.478888,00002.622742,00002.548443,00002.664966,00003.329423,00002.810395,00001.787369,-00001.120699,00000.050896,-00000.283224,-00000.000851,-00000.016800,00000.063376
0000000005630,00002.350988,00001.817145,00001.793174,00002.478854,00002.622975,00002.548658,00002.664937,00003.329681,00002.810405,00001.787651,-00001.118204,00000.049954,-00000.283595,-00000.000049,-00000.017010,00000.063382
0000000005631,00002.351129,00001.817579,00001.793544,00002.479572,00002.622941,00002.549154,00002.665194,00003.329407,00002.811161,00001.787754,-00001.111556,00000.048693,-00000.284960,00000.002135,-00000.017020,00000.063390
0000000005632,00002.351559,00001.817765,00001.794071,00002.479898,00002.623052,00002.549420,00002.665433,00003.329296,00002.811488,00001.788001,-00001.107852,00000.048719,-00000.285906,00000.003104,-00000.016823,00000.063392
0000000005633,00002.352703,00001.817744,00001.795397,00002.480461,00002.623007,00002.550166,00002.665616,00003.329079,00002.811720,00001.789141,-00001.100204,00000.048005,-00000.288015,00000.004820,-00000.018312,00000.062673
0000000005634,00002.352693,00001.817901,00001.795835,00002.480703,00002.623197,00002.550661,00002.665907,00003.328976,00002.811989,00001.789624,-00001.096632,00000.047687,-00000.289542,00000.005577,-00000.019159,00000.062368
0000000005635,00002.354757,00001.817860,00001.796535,00002.481871,00002.622767,00002.552311,00002.665656,00003.328806,00002.812510,00001.790885,-00001.089927,00000.047489,-00000.291836,00000.006924,-00000.020663,00000.061801
0000000005636,00002.358328,00001.817825,00001.796406,00002.482503,00002.622401,00002.553352,00002.665443,00003.329025,00002.812953,00001.792684,-00001.082404,00000.047683,-00000.293789,00000.008797,-00000.021944,00000.061318
0000000005637,00002.359696,00001.817652,00001.796697,00002.482937,00002.622598,00002.553978,00002.665708,00003.328550,00002.813164,00001.793293,-00001.078305,00000.047782,-00000.294827,00000.009252,-00000.022512,00000.061095
0000000005638,00002.361368,00001.817432,00001.797385,00002.483041,00002.623178,00002.554964,00002.665625,00003.328849,00002.813330,00001.794579,-00001.074187,00000.047848,-00000.295815,00000.009666,-00000.023035,00000.060907
0000000005639,00002.363955,00001.817098,00001.798580,00002.483499,00002.623840,00002.556699,00002.665779,00003.329424,00002.813651,00001.796192,-00001.070093,00000.048352,-00000.296451,00000.010768,-00000.023963,00000.060920
0000000005640,00002.363619,00001.817176,00001.799961,00002.483888,00002.624040,00002.557813,00002.665910,00003.329551,00002.813924,00001.797202,-00001.084386,00000.049869,-00000.294090,00000.015334,-00000.022939,00000.060205
0000000005641,00002.363482,00001.817070,00001.800350,00002.483840,00002.623753,00002.558100,00002.665765,00003.329784,00002.814054,00001.798211,-00001.096686,00000.050911,-00000.291680,00000.017939,-00000.022672,00000.059705
0000000005642,00002.362128,00001.816790,00001.801104,00002.483090,00002.622878,00002.557192,00002.665535,00003.329857,00002.812816,00001.800010,-00001.122987,00000.052047,-00000.287852,00000.021439,-00000.024742,00000.058808
0000000005643,00002.361745,00001.816265,00001.801465,00002.482797,00002.622287,00002.556829,00002.665029,00003.330114,00002.812648,00001.800447,-00001.136114,00000.052569,-00000.286393,00000.022786,-00000.025826,00000.058770
0000000005644,00002.359923,00001.814653,00001.800603,00002.481114,00002.620904,00002.554296,00002.663821,00003.329050,00002.811982,00001.799736,-00001.161631,00000.052371,-00000.282988,00000.025928,-00000.023437,00000.058013
0000000005645,00002.359267,00001.813970,00001.799808,00002.480203,00002.620464,00002.553383,00002.663105,00003.328939,00002.811537,00001.799015,-00001.172551,00000.051353,-00000.281818,00000.026592,-00000.021691,00000.058067
0000000005646,00002.357814,00001.812700,00001.798104,00002.478544,00002.619715,00002.551000,00002.661820,00003.328412,00002.811036,00001.797429,-00001.187570,00000.048433,-00000.281270,00000.025903,-00000.017740,00000.058865
0000000005647,00002.356577,00001.811981,00001.796291,00002.477493,00002.618715,00002.549334,00002.660726,00003.327964,00002.810610,00001.796441,-00001.198906,00000.045222,-00000.280441,00000.024954,-00000.014014,00000.059544
0000000005648,00002.355928,00001.811428,00001.795183,00002.476798,00002.618543,00002.548378,00002.660599,00003.327652,00002.810522,00001.796099,-00001.202825,00000.043588,-00000.280656,00000.024524,-00000.012490,00000.059826
0000000005649,00002.354971,00001.810898,00001.792715,00002.475645,00002.618080,00002.546739,00002.659687,00003.327317,00002.810172,00001.795309,-00001.208264,00000.040009,-00000.281007,00000.024868,-00000.010270,00000.059637
0000000005650,00002.354627,00001.811265,00001.791363,00002.475167,00002.618173,00002.546036,00002.659674,00003.326895,00002.810300,00001.794885,-00001.209891,00000.038092,-00000.281149,00000.025217,-00000.009901,00000.059581
0000000005651,00002.354226,00001.811485,00001.788738,00002.474256,00002.618127,00002.544745,00002.659625,00003.326310,00002.810346,00001.793913,-00001.211740,00000.035330,-00000.282152,00000.024733,-00000.010606,00000.060154
0000000005652,00002.354248,00001.811309,00001.786503,00002.473843,00002.617363,00002.544009,00002.659583,00003.326175,00002.810385,00001.792722,-00001.210774,00000.032979,-00000.283368,00000.023957,-00000.010480,00000.060279
0000000005653,00002.354533,00001.811197,00001.785752,00002.473478,00002.617590,00002.543870,00002.659918,00003.326736,00002.810339,00001.792596,-00001.209620,00000.031897,-00000.284470,00000.023245,-00000.010383,00000.060103
0000000005654,00002.354872,00001.811064,00001.785412,00002.473181,00002.617631,00002.544353,00002.659833,00003.327625,00002.810379,00001.792327,-00001.203890,00000.029693,-00000.287155,00000.021965,-00000.011016,00000.059873
0000000005655,00002.354954,00001.811033,00001.785413,00002.472884,00002.617865,00002.544555,00002.659826,00003.327976,00002.810447,00001.792189,-00001.200613,00000.028964,-00000.288335,00000.021392,-00000.011316,00000.059804
0000000005656,00002.354867,00001.810925,00001.785849,00002.472676,00002.617502,00002.544573,00002.659391,00003.327956,00002.809745,00001.791618,-00001.194771,00000.028648,-00000.290083,00000.020025,-00000.012173,00000.059618
0000000005657,00002.354431,00001.810833,00001.786583,00002.472135,00002.617919,00002.544225,00002.659747,00003.327938,00002.809874,00001.791132,-00001.188710,00000.028016,-00000.292297,00000.018136,-00000.012177,00000.059823
0000000005658,00002.354635,00001.810773,00001.787308,00002.472221,00002.618084,00002.544430,00002.659745,00003.328333,00002.809895,00001.791120,-00001.185464,00000.027711,-00000.293462,00000.016727,-00000.012358,00000.059677
0000000005659,00002.354785,00001.810754,00001.788297,00002.472401,00002.618274,00002.544655,00002.659687,00003.328649,00002.809983,00001.791081,-00001.182099,00000.027841,-00000.294544,00000.015802,-00000.012180,00000.059634
