0000000000901,00002.539003,00001.858062,00002.078640,00002.728644,00002.680664,00002.642059,00002.701043,00003.329795,00002.769084,00002.043551,-00000.298542,00000.081109,-00000.338945,00000.071341,-00000.012716,-00000.018647
0000000000902,00002.539293,00001.858498,00002.079769,00002.729666,00002.680921,00002.642286,00002.701183,00003.329620,00002.769666,00002.044035,-00000.298468,00000.081292,-00000.339128,00000.071069,-00000.012883,-00000.018677
0000000000903,00002.539483,00001.858579,00002.080823,00002.730311,00002.680759,00002.642453,00002.701010,00003.329867,00002.769816,00002.044421,-00000.298410,00000.081383,-00000.339335,00000.071254,-00000.012639,-00000.018777
0000000000904,00002.539368,00001.858587,00002.081784,00002.730456,00002.680978,00002.642283,00002.701129,00003.329718,00002.769949,00002.044833,-00000.298347,00000.081176,-00000.339491,00000.071022,-00000.012781,-00000.018802
0000000000905,00002.539529,00001.859020,00002.082681,00002.731730,00002.681202,00002.642425,00002.701344,00003.329928,00002.770440,00002.045162,-00000.298297,00000.080890,-00000.339667,00000.070817,-00000.012937,-00000.018887
0000000000906,00002.539794,00001.859389,00002.083499,00002.733305,00002.681389,00002.642643,00002.701446,00003.329801,00002.770916,00002.045513,-00000.298243,00000.080714,-00000.339800,00000.070619,-00000.012695,-00000.018908
0000000000907,00002.539932,00001.859394,00002.084263,00002.734390,00002.681943,00002.643126,00002.701629,00003.329980,00002.770971,00002.046155,-00000.298201,00000.080471,-00000.340312,00000.070444,-00000.012827,-00000.018981
0000000000908,00002.540520,00001.859346,00002.084959,00002.736093,00002.682101,00002.643675,00002.701715,00003.329872,00002.771377,00002.046454,-00000.298155,00000.080321,-00000.340425,00000.070276,-00000.012621,-00000.018999
0000000000909,00002.541000,00001.859351,00002.086335,00002.737017,00002.682573,00002.644087,00002.701871,00003.330024,00002.771786,00002.047001,-00000.298119,00000.080477,-00000.340499,00000.070490,-00000.012371,-00000.019061
0000000000910,00002.541138,00001.859310,00002.089104,00002.738103,00002.682708,00002.644554,00002.701582,00003.329933,00002.772131,00002.047255,-00000.298080,00000.080713,-00000.340595,00000.070710,-00000.012195,-00000.019076
0000000000911,00002.541183,00001.859313,00002.091727,00002.739615,00002.682747,00002.644904,00002.701715,00003.329699,00002.772843,00002.047358,-00000.298050,00000.080845,-00000.340295,00000.070892,-00000.011982,-00000.019129
0000000000912,00002.541301,00001.859279,00002.094447,00002.740178,00002.683224,00002.645302,00002.701832,00003.329621,00002.773137,00002.047937,-00000.298016,00000.081046,-00000.340014,00000.071442,-00000.011833,-00000.019142
0000000000913,00002.541340,00001.859282,00002.095954,00002.740739,00002.683620,00002.645600,00002.702307,00003.329785,00002.773380,00002.048025,-00000.297990,00000.081159,-00000.340121,00000.071960,-00000.011652,-00000.019549
0000000000914,00002.541440,00001.859252,00002.095731,00002.741218,00002.684027,00002.645939,00002.702407,00003.330082,00002.773267,00002.048155,-00000.297962,00000.081329,-00000.339882,00000.072428,-00000.011525,-00000.019561
0000000000915,00002.541473,00001.859618,00002.095562,00002.742059,00002.684364,00002.646193,00002.702449,00003.329859,00002.773836,00002.048592,-00000.297940,00000.081425,-00000.339611,00000.072869,-00000.011370,-00000.019545
0000000000916,00002.541921,00001.859592,00002.095372,00002.742467,00002.684347,00002.646481,00002.702171,00003.330111,00002.774103,00002.049066,-00000.297916,00000.081208,-00000.339770,00000.073267,-00000.011262,-00000.019554
0000000000917,00002.541949,00001.859541,00002.095228,00002.742820,00002.684634,00002.646334,00002.702206,00003.330284,00002.774225,00002.049438,-00000.297897,00000.081290,-00000.339539,00000.073280,-00000.011493,-00000.019541
0000000000918,00002.542330,00001.859519,00002.095066,00002.743167,00002.684620,00002.646579,00002.701970,00003.330499,00002.774452,00002.049842,-00000.297514,00000.081467,-00000.339312,00000.073256,-00000.011764,-00000.019549
0000000000919,00002.541991,00001.859475,00002.094944,00002.743467,00002.684501,00002.646455,00002.702000,00003.330283,00002.774919,00002.050158,-00000.297135,00000.081900,-00000.338752,00000.073630,-00000.011961,-00000.019537
0000000000920,00002.541953,00001.859457,00002.094806,00002.744126,00002.684126,00002.646663,00002.702161,00003.330103,00002.775475,00002.050502,-00000.296809,00000.082413,-00000.338196,00000.074335,-00000.011829,-00000.019544
0000000000921,00002.542027,00001.859057,00002.094702,00002.744019,00002.684025,00002.646920,00002.701825,00003.330282,00002.775510,00002.050772,-00000.296849,00000.082419,-00000.337719,00000.074653,-00000.011634,-00000.019535
0000000000922,00002.541632,00001.859041,00002.094222,00002.743853,00002.683706,00002.646372,00002.701962,00003.329766,00002.775621,00002.050701,-00000.296934,00000.082494,-00000.337609,00000.074891,-00000.011521,-00000.019540
0000000000923,00002.541695,00001.859063,00002.093771,00002.744125,00002.683257,00002.646228,00002.701675,00003.329556,00002.775650,00002.050568,-00000.296968,00000.082135,-00000.337566,00000.075162,-00000.011355,-00000.019532
0000000000924,00002.541722,00001.859050,00002.093362,00002.744347,00002.683348,00002.646124,00002.701792,00003.329480,00002.776107,00002.050871,-00000.297041,00000.082199,-00000.337472,00000.075364,-00000.011622,-00000.019537
0000000000925,00002.541776,00001.859069,00002.093341,00002.744941,00002.683329,00002.646364,00002.701911,00003.328938,00002.776495,00002.051120,-00000.297070,00000.082257,-00000.337435,00000.075232,-00000.012206,-00000.019530
0000000000926,00002.541798,00001.858695,00002.093718,00002.745131,00002.683407,00002.646639,00002.701647,00003.329236,00002.776521,00002.051741,-00000.297131,00000.082311,-00000.337718,00000.075041,-00000.012796,-00000.019897
0000000000927,00002.541481,00001.858711,00002.093337,00002.745274,00002.683028,00002.646480,00002.701386,00003.328775,00002.776488,00002.051953,-00000.297156,00000.081997,-00000.338050,00000.074928,-00000.013293,-00000.020254
0000000000928,00002.541137,00001.858755,00002.093296,00002.745797,00002.683094,00002.646351,00002.701887,00003.328665,00002.776874,00002.052481,-00000.297209,00000.081681,-00000.338290,00000.074766,-00000.013433,-00000.020566
0000000000929,00002.541230,00001.858769,00002.093334,00002.746645,00002.683134,00002.646942,00002.702390,00003.328998,00002.777209,00002.053025,-00000.297230,00000.081414,-00000.338573,00000.074670,-00000.013493,-00000.020870
0000000000930,00002.541300,00001.858806,00002.093662,00002.746728,00002.683190,00002.646832,00002.702454,00003.328905,00002.777174,00002.053475,-00000.297275,00000.081144,-00000.338778,00000.074532,-00000.013612,-00000.020773
0000000000931,00002.541380,00001.858818,00002.094058,00002.746723,00002.683224,00002.646972,00002.702156,00003.329189,00002.777096,00002.054300,-00000.297293,00000.080917,-00000.338655,00000.074451,-00000.013664,-00000.020669
0000000000932,00002.541439,00001.858850,00002.093974,00002.746794,00002.682909,00002.647241,00002.701848,00003.329109,00002.777066,00002.054683,-00000.297331,00000.080687,-00000.338830,00000.074333,-00000.013765,-00000.020587
0000000000933,00002.541507,00001.858860,00002.094310,00002.746791,00002.683301,00002.646997,00002.701957,00003.329351,00002.777000,00002.055386,-00000.297346,00000.080494,-00000.339088,00000.074264,-00000.013809,-00000.020498
0000000000934,00002.541920,00001.858887,00002.094602,00002.746851,00002.683396,00002.647227,00002.701695,00003.329646,00002.776975,00002.056074,-00000.297378,00000.080299,-00000.339599,00000.073801,-00000.013895,-00000.020428
0000000000935,00002.541978,00001.858896,00002.094888,00002.746848,00002.683003,00002.647382,00002.701425,00003.329489,00002.776919,00002.056310,-00000.297391,00000.080134,-00000.340182,00000.073742,-00000.013932,-00000.020352
0000000000936,00002.541967,00001.858919,00002.094774,00002.746899,00002.683084,00002.646852,00002.701565,00003.329377,00002.776897,00002.056533,-00000.297419,00000.079967,-00000.340618,00000.073348,-00000.014005,-00000.020655
0000000000937,00002.542379,00001.858926,00002.095018,00002.746896,00002.683113,00002.646621,00002.701698,00003.329606,00002.776849,00002.057097,-00000.297430,00000.079827,-00000.341114,00000.073297,-00000.014037,-00000.020954
0000000000938,00002.542732,00001.858946,00002.095283,00002.746940,00002.683545,00002.646532,00002.702179,00003.329874,00002.776831,00002.058013,-00000.297453,00000.079323,-00000.341484,00000.073687,-00000.014099,-00000.020849
0000000000939,00002.542720,00001.858952,00002.095490,00002.747301,00002.683569,00002.646699,00002.702293,00003.329706,00002.777153,00002.058492,-00000.297463,00000.079204,-00000.341907,00000.074007,-00000.014127,-00000.020740
0000000000940,00002.542658,00001.858969,00002.095353,00002.747338,00002.683574,00002.646986,00002.702340,00003.329571,00002.777500,00002.058546,-00000.297483,00000.079137,-00000.342222,00000.073977,-00000.014180,-00000.020651
0000000000941,00002.543011,00001.858974,00002.095530,00002.747645,00002.683232,00002.647128,00002.702074,00003.329791,00002.777412,00002.058592,-00000.297491,00000.079035,-00000.342219,00000.073886,-00000.013840,-00000.020559
0000000000942,00002.542958,00001.858989,00002.095413,00002.748039,00002.683236,00002.647373,00002.702114,00003.330039,00002.777707,00002.058638,-00000.297871,00000.078979,-00000.342488,00000.073860,-00000.013885,-00000.020483
0000000000943,00002.542895,00001.858993,00002.095201,00002.748300,00002.682945,00002.647493,00002.701887,00003.330226,00002.777994,00002.058676,-00000.297878,00000.078892,-00000.342848,00000.073783,-00000.013596,-00000.020404
0000000000944,00002.543213,00001.859005,00002.097641,00002.748273,00002.682948,00002.647339,00002.701921,00003.330075,00002.777520,00002.059078,-00000.297838,00000.078481,-00000.342713,00000.073761,-00000.013634,-00000.020339
0000000000945,00002.543160,00001.859009,00002.100000,00002.748133,00002.683426,00002.647079,00002.702091,00003.330234,00002.777402,00002.059474,-00000.297844,00000.078408,-00000.342657,00000.073695,-00000.014114,-00000.020272
0000000000946,00002.543068,00001.859019,00002.101715,00002.748473,00002.683429,00002.647310,00002.701757,00003.330105,00002.777724,00002.059816,-00000.297810,00000.078420,-00000.342543,00000.073676,-00000.014509,-00000.020217
0000000000947,00002.543022,00001.859385,00002.103723,00002.748716,00002.683836,00002.647088,00002.702265,00003.330241,00002.777987,00002.060516,-00000.297815,00000.078358,-00000.342495,00000.073621,-00000.014917,-00000.020523
0000000000948,00002.542944,00001.859757,00002.105182,00002.749005,00002.683838,00002.646922,00002.702344,00003.330131,00002.778261,00002.060807,-00000.297787,00000.078369,-00000.342761,00000.073605,-00000.014891,-00000.020839
0000000000949,00002.543268,00001.859706,00002.106892,00002.748850,00002.684184,00002.647097,00002.702413,00003.330246,00002.778121,00002.061403,-00000.297791,00000.077952,-00000.343083,00000.073557,-00000.014876,-00000.021099
0000000000950,00002.543564,00001.860022,00002.108497,00002.749096,00002.684549,00002.647318,00002.702842,00003.330153,00002.778717,00002.061651,-00000.297766,00000.077599,-00000.343309,00000.073543,-00000.014854,-00000.021731
0000000000951,00002.543477,00001.859979,00002.109590,00002.749326,00002.684481,00002.647104,00002.702901,00003.329888,00002.778961,00002.062158,-00000.297770,00000.077245,-00000.343583,00000.073503,-00000.014841,-00000.021952
0000000000952,00002.544092,00001.859885,00002.110956,00002.749536,00002.684429,00002.647655,00002.702542,00003.330534,00002.779106,00002.062369,-00000.297749,00000.077307,-00000.343413,00000.073491,-00000.014822,-00000.022127
0000000000953,00002.544743,00001.859848,00002.112249,00002.749369,00002.684734,00002.647835,00002.702592,00003.330672,00002.778951,00002.062801,-00000.297752,00000.077005,-00000.343646,00000.073457,-00000.014811,-00000.022316
0000000000954,00002.544904,00001.859768,00002.113413,00002.749185,00002.684689,00002.647579,00002.702648,00003.330496,00002.778711,00002.062980,-00000.297735,00000.076695,-00000.343864,00000.073447,-00000.014794,-00000.022465
0000000000955,00002.545459,00001.859374,00002.114513,00002.749043,00002.684586,00002.647370,00002.702328,00003.330613,00002.778579,00002.063348,-00000.297737,00000.076438,-00000.344062,00000.073418,-00000.014785,-00000.022625
0000000000956,00002.545595,00001.859669,00002.114053,00002.749249,00002.684548,00002.647152,00002.702376,00003.330464,00002.778738,00002.063501,-00000.297722,00000.076174,-00000.344248,00000.073409,-00000.014771,-00000.022752
0000000000957,00002.545705,00001.859696,00002.113538,00002.748765,00002.684461,00002.646974,00002.702467,00003.330564,00002.778626,00002.063451,-00000.298087,00000.075956,-00000.344780,00000.073384,-00000.014763,-00000.022889
0000000000958,00002.545459,00001.859585,00002.112783,00002.748577,00002.684065,00002.647151,00002.702145,00003.330436,00002.778398,00002.063218,-00000.298075,00000.075731,-00000.344938,00000.073377,-00000.015114,-00000.022997
0000000000959,00002.545552,00001.859245,00002.111983,00002.748166,00002.683991,00002.647362,00002.701859,00003.330521,00002.777940,00002.063539,-00000.298023,00000.075545,-00000.345028,00000.073356,-00000.015107,-00000.023113
0000000000960,00002.545705,00001.858787,00002.111703,00002.747643,00002.684017,00002.647513,00002.701585,00003.330776,00002.777746,00002.063703,-00000.298012,00000.075353,-00000.344799,00000.073350,-00000.015044,-00000.022842
0000000000961,00002.545784,00001.858498,00002.111021,00002.747656,00002.683954,00002.647692,00002.701341,00003.330848,00002.777718,00002.063613,-00000.297967,00000.075195,-00000.344876,00000.073332,-00000.015038,-00000.022942
0000000000962,00002.545914,00001.858471,00002.109694,00002.747574,00002.683613,00002.647821,00002.701108,00003.330702,00002.777916,00002.063391,-00000.297958,00000.075032,-00000.345044,00000.072964,-00000.014983,-00000.022711
0000000000963,00002.545619,00001.858587,00002.108026,00002.747221,00002.683559,00002.647611,00002.701264,00003.330038,00002.777893,00002.062951,-00000.297920,00000.074535,-00000.345109,00000.072585,-00000.014978,-00000.022795
0000000000964,00002.545730,00001.858202,00002.106896,00002.747151,00002.683632,00002.647720,00002.701428,00003.330276,00002.777699,00002.063125,-00000.298275,00000.074033,-00000.345615,00000.071909,-00000.014932,-00000.022962
0000000000965,00002.545841,00001.858301,00002.105476,00002.747214,00002.683586,00002.647904,00002.701560,00003.330073,00002.778041,00002.063113,-00000.298606,00000.073609,-00000.346034,00000.071587,-00000.014928,-00000.022671
0000000000966,00002.545573,00001.858335,00002.104515,00002.747155,00002.683648,00002.647634,00002.701700,00003.329914,00002.778239,00002.063261,-00000.298908,00000.073183,-00000.346102,00000.071375,-00000.014888,-00000.022450
0000000000967,00002.545305,00001.858420,00002.103668,00002.746846,00002.683609,00002.647066,00002.701813,00003.329741,00002.778168,00002.062888,-00000.299190,00000.073185,-00000.346458,00000.071100,-00000.014885,-00000.022565
0000000000968,00002.545439,00001.858449,00002.103212,00002.746432,00002.684025,00002.646836,00002.702295,00003.330331,00002.777973,00002.063377,-00000.299084,00000.072821,-00000.346879,00000.070919,-00000.014851,-00000.022739
0000000000969,00002.545574,00001.858158,00002.102855,00002.746169,00002.683992,00002.646715,00002.702028,00003.330547,00002.777913,00002.063422,-00000.299324,00000.072460,-00000.347182,00000.070686,-00000.014848,-00000.022837
0000000000970,00002.545688,00001.857820,00002.102104,00002.746180,00002.683620,00002.646882,00002.701713,00003.330323,00002.777747,00002.063476,-00000.299596,00000.072151,-00000.347540,00000.070532,-00000.014820,-00000.022623
0000000000971,00002.545803,00001.857936,00002.101437,00002.745956,00002.683591,00002.646778,00002.701848,00003.330507,00002.777695,00002.063514,-00000.299800,00000.071844,-00000.347435,00000.070333,-00000.014817,-00000.022344
0000000000972,00002.545538,00001.858011,00002.100797,00002.745965,00002.683275,00002.646558,00002.701943,00003.330316,00002.777554,00002.063197,-00000.300033,00000.071580,-00000.347377,00000.070565,-00000.014793,-00000.022161
0000000000973,00002.545635,00001.857746,00002.100229,00002.745774,00002.683251,00002.646470,00002.701695,00003.330473,00002.777511,00002.063230,-00000.300206,00000.071319,-00000.347288,00000.070758,-00000.014791,-00000.021924
0000000000974,00002.545772,00001.857810,00002.100048,00002.745419,00002.683707,00002.646645,00002.701776,00003.330673,00002.777390,00002.063685,-00000.300404,00000.071457,-00000.347239,00000.070956,-00000.014770,-00000.022131
0000000000975,00002.545855,00001.857585,00002.099927,00002.745257,00002.683687,00002.646933,00002.701565,00003.330807,00002.777353,00002.064076,-00000.300552,00000.071235,-00000.347163,00000.071120,-00000.014768,-00000.022291
0000000000976,00002.545972,00001.857276,00002.099773,00002.744955,00002.684075,00002.646719,00002.701633,00003.330977,00002.777251,00002.064101,-00000.300720,00000.071353,-00000.347121,00000.070925,-00000.014750,-00000.022468
0000000000977,00002.546042,00001.857084,00002.099670,00002.744817,00002.684057,00002.646602,00002.701454,00003.331091,00002.777219,00002.063708,-00000.300846,00000.071526,-00000.347419,00000.070703,-00000.015111,-00000.022605
0000000000978,00002.546141,00001.857185,00002.099539,00002.744197,00002.684025,00002.646420,00002.701512,00003.331236,00002.776769,00002.063729,-00000.300990,00000.071263,-00000.347384,00000.070537,-00000.015459,-00000.022755
0000000000979,00002.545839,00001.857384,00002.099088,00002.744079,00002.684010,00002.646320,00002.702085,00003.330970,00002.777105,00002.063395,-00000.300734,00000.071048,-00000.347275,00000.070348,-00000.015767,-00000.022871
0000000000980,00002.545923,00001.857470,00002.098976,00002.744277,00002.683983,00002.646528,00002.702135,00003.331094,00002.777448,00002.063413,-00000.300493,00000.070825,-00000.347244,00000.070569,-00000.015700,-00000.022999
0000000000981,00002.546028,00001.857639,00002.098593,00002.744539,00002.683970,00002.646442,00002.702260,00003.330504,00002.777734,00002.063128,-00000.300276,00000.070642,-00000.347152,00000.070771,-00000.015599,-00000.023098
0000000000982,00002.546100,00001.857712,00002.098135,00002.744708,00002.683584,00002.646619,00002.702302,00003.330247,00002.778025,00002.062780,-00000.300433,00000.070814,-00000.347488,00000.070597,-00000.015542,-00000.023207
0000000000983,00002.546553,00001.857857,00002.098171,00002.744568,00002.683936,00002.646547,00002.702408,00003.330471,00002.778269,00002.062901,-00000.300611,00000.070658,-00000.347410,00000.070405,-00000.015456,-00000.023291
0000000000984,00002.546251,00001.857919,00002.098144,00002.744349,00002.684333,00002.645972,00002.702444,00003.330252,00002.778154,00002.063331,-00000.300745,00000.070442,-00000.347334,00000.070257,-00000.015771,-00000.023384
0000000000985,00002.546273,00001.858042,00002.097812,00002.744593,00002.683907,00002.646273,00002.702535,00003.330442,00002.778361,00002.063433,-00000.300896,00000.070309,-00000.347266,00000.070094,-00000.016060,-00000.023456
0000000000986,00002.546379,00001.858094,00002.097427,00002.744769,00002.683882,00002.646146,00002.702565,00003.330256,00002.778626,00002.063073,-00000.301011,00000.070126,-00000.347564,00000.069968,-00000.016328,-00000.023898
0000000000987,00002.547124,00001.858199,00002.097507,00002.744977,00002.683882,00002.646402,00002.702280,00003.330418,00002.778440,00002.063161,-00000.301139,00000.069650,-00000.347870,00000.069829,-00000.016574,-00000.024322
0000000000988,00002.547577,00001.858607,00002.097178,00002.745127,00002.683861,00002.646295,00002.702306,00003.330259,00002.778666,00002.063217,-00000.301237,00000.069131,-00000.348124,00000.069722,-00000.016802,-00000.024698
0000000000989,00002.548211,00001.858333,00002.097610,00002.744941,00002.684224,00002.646150,00002.702425,00003.330397,00002.778870,00002.063292,-00000.301346,00000.068726,-00000.348384,00000.069604,-00000.017012,-00000.025058
0000000000990,00002.548597,00001.858317,00002.098781,00002.745069,00002.684569,00002.646058,00002.702447,00003.330262,00002.779062,00002.063340,-00000.301429,00000.068646,-00000.348600,00000.069513,-00000.017206,-00000.025016
0000000000991,00002.549136,00001.858447,00002.099874,00002.744910,00002.684878,00002.645572,00002.702549,00003.330017,00002.778873,00002.063403,-00000.301522,00000.068664,-00000.348459,00000.069412,-00000.017385,-00000.024960
0000000000992,00002.549464,00001.858434,00002.100145,00002.745019,00002.685171,00002.645494,00002.702931,00003.330264,00002.778674,00002.063444,-00000.301593,00000.068597,-00000.348280,00000.069334,-00000.017550,-00000.025287
0000000000993,00002.549561,00001.858544,00002.099987,00002.744884,00002.685072,00002.645443,00002.703018,00003.330056,00002.779239,00002.063498,-00000.301672,00000.068249,-00000.348159,00000.069249,-00000.017339,-00000.025239
0000000000994,00002.550203,00001.858533,00002.099856,00002.745339,00002.684959,00002.646102,00002.702980,00003.330629,00002.779432,00002.063895,-00000.301732,00000.067829,-00000.348370,00000.069182,-00000.017117,-00000.025155
0000000000995,00002.549923,00001.858627,00002.099358,00002.745588,00002.684874,00002.646059,00002.703416,00003.330452,00002.779550,00002.063941,-00000.301800,00000.067533,-00000.348630,00000.069110,-00000.016938,-00000.025114
0000000000996,00002.550107,00001.858617,00002.098884,00002.745250,00002.685140,00002.645894,00002.703384,00003.330214,00002.779714,00002.063917,-00000.301851,00000.067176,-00000.348447,00000.068690,-00000.017111,-00000.025042
0000000000997,00002.550231,00001.858335,00002.098460,00002.745098,00002.685068,00002.646220,00002.703393,00003.330426,00002.779815,00002.063956,-00000.301909,00000.067286,-00000.348668,00000.068628,-00000.017321,-00000.025008
0000000000998,00002.550387,00001.857964,00002.098419,00002.744810,00002.685295,00002.646080,00002.703365,00003.330587,00002.779955,00002.064298,-00000.301952,00000.067345,-00000.348512,00000.068634,-00000.017469,-00000.024946
0000000000999,00002.550130,00001.857723,00002.098058,00002.744681,00002.685233,00002.645995,00002.703373,00003.330767,00002.779678,00002.064331,-00000.302001,00000.067439,-00000.348338,00000.068582,-00000.017648,-00000.024917
0000000001000,00002.550263,00001.857407,00002.097660,00002.744799,00002.684701,00002.646239,00002.702987,00003.330904,00002.779797,00002.064260,-00000.302038,00000.067489,-00000.348205,00000.068587,-00000.017774,-00000.024865
0000000001001,00002.550044,00001.857565,00002.097353,00002.744689,00002.685012,00002.646166,00002.703356,00003.330694,00002.780286,00002.064288,-00000.302080,00000.067569,-00000.348057,00000.068542,-00000.017926,-00000.024840
0000000001002,00002.549432,00001.857659,00002.097015,00002.744427,00002.684921,00002.645648,00002.703753,00003.330448,00002.780388,00002.064227,-00000.302112,00000.067611,-00000.348306,00000.068546,-00000.018033,-00000.025158
0000000001003,00002.549609,00001.857431,00002.096753,00002.744333,00002.684823,00002.645586,00002.703704,00003.330632,00002.780079,00002.064251,-00000.302147,00000.067317,-00000.348543,00000.068508,-00000.018163,-00000.025500
0000000001004,00002.549450,00001.857510,00002.096102,00002.744110,00002.684746,00002.645507,00002.703679,00003.330423,00002.780165,00002.064200,-00000.302174,00000.066990,-00000.348755,00000.068511,-00000.017891,-00000.025770
0000000001005,00002.549238,00001.857316,00002.095880,00002.743667,00002.684662,00002.645092,00002.703638,00003.330217,00002.779902,00002.064220,-00000.302204,00000.067102,-00000.348957,00000.068479,-00000.017639,-00000.025698
0000000001006,00002.549103,00001.857021,00002.095688,00002.743477,00002.684596,00002.645388,00002.703254,00003.330401,00002.779613,00002.064176,-00000.302227,00000.067187,-00000.349138,00000.068482,-00000.017045,-00000.025929
0000000001007,00002.549285,00001.857219,00002.095861,00002.743463,00002.684525,00002.645760,00002.703219,00003.330952,00002.779752,00002.064193,-00000.301890,00000.067282,-00000.349309,00000.068454,-00000.016467,-00000.026231
0000000001008,00002.549533,00001.856968,00002.095698,00002.743664,00002.684106,00002.645649,00002.702892,00003.330746,00002.779506,00002.064156,-00000.301547,00000.067354,-00000.349463,00000.068457,-00000.015961,-00000.026427
0000000001009,00002.549688,00001.856773,00002.096209,00002.743652,00002.684045,00002.645603,00002.702499,00003.330851,00002.779261,00002.064533,-00000.301622,00000.067436,-00000.349972,00000.068433,-00000.015107,-00000.026321
0000000001010,00002.549536,00001.856922,00002.098247,00002.743823,00002.684052,00002.645872,00002.702584,00003.331039,00002.779777,00002.064502,-00000.301693,00000.067134,-00000.350466,00000.068436,-00000.014314,-00000.026488
0000000001011,00002.549305,00001.857119,00002.100132,00002.743813,00002.684000,00002.645469,00002.702612,00003.330403,00002.779932,00002.064097,-00000.301395,00000.067203,-00000.350173,00000.068778,-00000.013586,-00000.026398
0000000001012,00002.549176,00001.856883,00002.102230,00002.743233,00002.684006,00002.645335,00002.702321,00003.330563,00002.779646,00002.064070,-00000.301092,00000.067310,-00000.349868,00000.069143,-00000.012911,-00000.026177
0000000001013,00002.549342,00001.856688,00002.104198,00002.743225,00002.683962,00002.645356,00002.702346,00003.330748,00002.779414,00002.064089,-00000.301201,00000.067369,-00000.349982,00000.069435,-00000.012654,-00000.026100
0000000001014,00002.549232,00001.856487,00002.105984,00002.742731,00002.684329,00002.645241,00002.702461,00003.330884,00002.779171,00002.064066,-00000.301306,00000.067096,-00000.350085,00000.069745,-00000.012079,-00000.025913
0000000001015,00002.549011,00001.856684,00002.107297,00002.742724,00002.684292,00002.644896,00002.702844,00003.330678,00002.779337,00002.064082,-00000.301399,00000.067146,-00000.350182,00000.069994,-00000.011861,-00000.025847
0000000001016,00002.549280,00001.856876,00002.108817,00002.742666,00002.684604,00002.644799,00002.702942,00003.331156,00002.779492,00002.064425,-00000.301488,00000.066914,-00000.350269,00000.069895,-00000.011734,-00000.025687
0000000001017,00002.549454,00001.856681,00002.110297,00002.742660,00002.684572,00002.644868,00002.702543,00003.331344,00002.779271,00002.064438,-00000.301204,00000.066594,-00000.350352,00000.069744,-00000.011548,-00000.025632
0000000001018,00002.549321,00001.856844,00002.111228,00002.742248,00002.684476,00002.644422,00002.702627,00003.330663,00002.779040,00002.064368,-00000.301280,00000.066397,-00000.350427,00000.069660,-00000.011441,-00000.025496
0000000001019,00002.549106,00001.857040,00002.112126,00002.742243,00002.684449,00002.644481,00002.702650,00003.330460,00002.779214,00002.064379,-00000.301401,00000.066124,-00000.350497,00000.069531,-00000.011282,-00000.025448
0000000001020,00002.548630,00001.857179,00002.112919,00002.742255,00002.684367,00002.644101,00002.702721,00003.329880,00002.779018,00002.064319,-00000.301466,00000.065956,-00000.350197,00000.069822,-00000.011190,-00000.025332
0000000001021,00002.548810,00001.857347,00002.114045,00002.742251,00002.684344,00002.644514,00002.702377,00003.330070,00002.778803,00002.064329,-00000.301207,00000.066087,-00000.349894,00000.070076,-00000.011056,-00000.025292
0000000001022,00002.548767,00001.857465,00002.114720,00002.742261,00002.683911,00002.644554,00002.702438,00003.329939,00002.778999,00002.064278,-00000.301262,00000.066307,-00000.350003,00000.070324,-00000.010978,-00000.025193
0000000001023,00002.549283,00001.857607,00002.115679,00002.742620,00002.683891,00002.644905,00002.702146,00003.330101,00002.779179,00002.064286,-00000.301041,00000.066418,-00000.349745,00000.070539,-00000.010863,-00000.025159
0000000001024,00002.549247,00001.857708,00002.116617,00002.742992,00002.683886,00002.645302,00002.702560,00003.330353,00002.779709,00002.064242,-00000.301088,00000.066605,-00000.349837,00000.070750,-00000.010796,-00000.024712
0000000001025,00002.549324,00001.857830,00002.117796,00002.743297,00002.683869,00002.645601,00002.702674,00003.330853,00002.779862,00002.064250,-00000.300899,00000.066700,-00000.349617,00000.070934,-00000.010699,-00000.024683
0000000001026,00002.549293,00001.857553,00002.118594,00002.743251,00002.683864,00002.645576,00002.702301,00003.331067,00002.779587,00002.064575,-00000.300939,00000.066859,-00000.349332,00000.071114,-00000.010642,-00000.024665
0000000001027,00002.548995,00001.857656,00002.119235,00002.743148,00002.683850,00002.645105,00002.702398,00003.330768,00002.779718,00002.064581,-00000.300779,00000.066940,-00000.349146,00000.071270,-00000.010559,-00000.024640
0000000001028,00002.549331,00001.857420,00002.120278,00002.743109,00002.684209,00002.645083,00002.702444,00003.330950,00002.779847,00002.064859,-00000.300450,00000.067075,-00000.348903,00000.071423,-00000.010511,-00000.024626
0000000001029,00002.549441,00001.857145,00002.120823,00002.743022,00002.684559,00002.645045,00002.702163,00003.331058,00002.779595,00002.065589,-00000.300314,00000.066781,-00000.348744,00000.071556,-00000.010440,-00000.024242
0000000001030,00002.549727,00001.857307,00002.121348,00002.742988,00002.684502,00002.645027,00002.701839,00003.330850,00002.779342,00002.065825,-00000.300034,00000.066534,-00000.348538,00000.071686,-00000.010036,-00000.023866
0000000001031,00002.549820,00001.857436,00002.121812,00002.743276,00002.684075,00002.645357,00002.701601,00003.330579,00002.779128,00002.065722,-00000.300281,00000.066284,-00000.348765,00000.071799,-00000.009613,-00000.023176
0000000001032,00002.549701,00001.857574,00002.122259,00002.743610,00002.684026,00002.645705,00002.702050,00003.330402,00002.779638,00002.065923,-00000.300405,00000.066436,-00000.348953,00000.071910,-00000.009269,-00000.022494
0000000001033,00002.549418,00001.857683,00002.122292,00002.743856,00002.683662,00002.645986,00002.702210,00003.329809,00002.779818,00002.066197,-00000.300253,00000.066585,-00000.349146,00000.072006,-00000.008909,-00000.022270
0000000001034,00002.549680,00001.857438,00002.123034,00002.744141,00002.683621,00002.646282,00002.702230,00003.330384,00002.779890,00002.066368,-00000.299996,00000.066715,-00000.349306,00000.072101,-00000.008617,-00000.022051
0000000001035,00002.549438,00001.857531,00002.123062,00002.744350,00002.683674,00002.646158,00002.702366,00003.330241,00002.780043,00002.065877,-00000.300229,00000.066480,-00000.349470,00000.072183,-00000.008310,-00000.021860
0000000001036,00002.549298,00001.857322,00002.123332,00002.744229,00002.683639,00002.646047,00002.702020,00003.330368,00002.779741,00002.066022,-00000.300010,00000.066590,-00000.349606,00000.072263,-00000.008061,-00000.021675
0000000001037,00002.549093,00001.857402,00002.123718,00002.744407,00002.683321,00002.646305,00002.702136,00003.330247,00002.779872,00002.066329,-00000.300208,00000.066389,-00000.350109,00000.072333,-00000.008163,-00000.021512
0000000001038,00002.548973,00001.857224,00002.123948,00002.744304,00002.682928,00002.646210,00002.701842,00003.330355,00002.779978,00002.066453,-00000.300385,00000.066121,-00000.350225,00000.072039,-00000.007951,-00000.021717
0000000001039,00002.548798,00001.856929,00002.124640,00002.744093,00002.683021,00002.646430,00002.701577,00003.330614,00002.780089,00002.066715,-00000.300554,00000.065950,-00000.350290,00000.071735,-00000.007675,-00000.021578
0000000001040,00002.548697,00001.856777,00002.124835,00002.744005,00002.682686,00002.646349,00002.701327,00003.330706,00002.779816,00002.066457,-00000.300704,00000.065721,-00000.350388,00000.071485,-00000.007494,-00000.021390
0000000001041,00002.548185,00001.856889,00002.125061,00002.743826,00002.682765,00002.645810,00002.701465,00003.330564,00002.779911,00002.066317,-00000.300848,00000.065576,-00000.350444,00000.071226,-00000.007259,-00000.021272
0000000001042,00002.548099,00001.856760,00002.124865,00002.743751,00002.682480,00002.646105,00002.701614,00003.330280,00002.780041,00002.066098,-00000.300976,00000.065381,-00000.350528,00000.071013,-00000.007105,-00000.021112
0000000001043,00002.548026,00001.856492,00002.125057,00002.743235,00002.682547,00002.646009,00002.701369,00003.330522,00002.779759,00002.065978,-00000.301098,00000.065257,-00000.350575,00000.070793,-00000.006905,-00000.021011
0000000001044,00002.547952,00001.856383,00002.125253,00002.742809,00002.682668,00002.645896,00002.701133,00003.330642,00002.779508,00002.066155,-00000.301207,00000.065091,-00000.350646,00000.070974,-00000.006774,-00000.020875
0000000001045,00002.547527,00001.856517,00002.125054,00002.742733,00002.682725,00002.645452,00002.701287,00003.330486,00002.779993,00002.066053,-00000.301311,00000.064986,-00000.350687,00000.070787,-00000.006604,-00000.021152
0000000001046,00002.547102,00001.856424,00002.124858,00002.742733,00002.682464,00002.645356,00002.701449,00003.330226,00002.780142,00002.065840,-00000.301404,00000.064845,-00000.350748,00000.070579,-00000.006493,-00000.021398
0000000001047,00002.546740,00001.856539,00002.124688,00002.742668,00002.682513,00002.644978,00002.701580,00003.329729,00002.780192,00002.065754,-00000.301492,00000.064755,-00000.350782,00000.070057,-00000.006347,-00000.021635
0000000001048,00002.546741,00001.856459,00002.124521,00002.742668,00002.682291,00002.644897,00002.701718,00003.329508,00002.780319,00002.065573,-00000.301571,00000.064635,-00000.350834,00000.069879,-00000.006253,-00000.021844
0000000001049,00002.547159,00001.856194,00002.124740,00002.742249,00002.682333,00002.644937,00002.701467,00003.329811,00002.780362,00002.065862,-00000.301647,00000.064559,-00000.350863,00000.069797,-00000.006129,-00000.022046
0000000001050,00002.546796,00001.856489,00002.124598,00002.741887,00002.682507,00002.644505,00002.701585,00003.329260,00002.780106,00002.065345,-00000.301714,00000.064456,-00000.350907,00000.069646,-00000.006048,-00000.022224
0000000001051,00002.546789,00001.856626,00002.124784,00002.741893,00002.682542,00002.644540,00002.702096,00003.329155,00002.780506,00002.065228,-00000.301778,00000.064392,-00000.350932,00000.069577,-00000.005943,-00000.022395
0000000001052,00002.546844,00001.856877,00002.125025,00002.741947,00002.682328,00002.644898,00002.701834,00003.329411,00002.780651,00002.065514,-00000.301835,00000.064304,-00000.350969,00000.069448,-00000.005875,-00000.022185
0000000001053,00002.546838,00001.856631,00002.125184,00002.741590,00002.682358,00002.644564,00002.701906,00003.329322,00002.780266,00002.065777,-00000.301890,00000.064249,-00000.350990,00000.069389,-00000.005785,-00000.021967
0000000001054,00002.546884,00001.856482,00002.125027,00002.741636,00002.682175,00002.644506,00002.701683,00003.329177,00002.780390,00002.065658,-00000.301939,00000.064538,-00000.351022,00000.069279,-00000.005727,-00000.021425
0000000001055,00002.546516,00001.856636,00002.124799,00002.741695,00002.682201,00002.644223,00002.701745,00003.328739,00002.780424,00002.065519,-00000.301985,00000.064854,-00000.350677,00000.068866,-00000.005651,-00000.021240
0000000001056,00002.546555,00001.856509,00002.125028,00002.741371,00002.682408,00002.644173,00002.701554,00003.328978,00002.780167,00002.065780,-00000.301664,00000.065099,-00000.350342,00000.068773,-00000.005601,-00000.021142
0000000001057,00002.546605,00001.856639,00002.124834,00002.741422,00002.682430,00002.643931,00002.701607,00003.328605,00002.780559,00002.065662,-00000.301341,00000.065368,-00000.350411,00000.068784,-00000.005536,-00000.020984
0000000001058,00002.546276,00001.856894,00002.124666,00002.741509,00002.682606,00002.643889,00002.701808,00003.328446,00002.781066,00002.065521,-00000.301430,00000.065577,-00000.350488,00000.068705,-00000.005493,-00000.020900
0000000001059,00002.545955,00001.857005,00002.124501,00002.741552,00002.682625,00002.644046,00002.701853,00003.328491,00002.781037,00002.065421,-00000.301518,00000.065443,-00000.350547,00000.068714,-00000.005438,-00000.020766
0000000001060,00002.546038,00001.856860,00002.124358,00002.741626,00002.682412,00002.644373,00002.702024,00003.328718,00002.781105,00002.065664,-00000.301594,00000.065258,-00000.350250,00000.068646,-00000.005402,-00000.021058
0000000001061,00002.546127,00001.856954,00002.124580,00002.741299,00002.682428,00002.644144,00002.702425,00003.328757,00002.781081,00002.065578,-00000.301668,00000.065144,-00000.350300,00000.068654,-00000.004992,-00000.021306
0000000001062,00002.546198,00001.857193,00002.124822,00002.741363,00002.682972,00002.644060,00002.702570,00003.328588,00002.781139,00002.065423,-00000.301733,00000.064987,-00000.350047,00000.068597,-00000.004599,-00000.021191
0000000001063,00002.546274,00001.857273,00002.124648,00002.741447,00002.682986,00002.644590,00002.702549,00003.328620,00002.781118,00002.065350,-00000.301797,00000.064890,-00000.350090,00000.068604,-00000.004613,-00000.021040
0000000001064,00002.546697,00001.857114,00002.124853,00002.741501,00002.683087,00002.644518,00002.702310,00003.328839,00002.781167,00002.065580,-00000.301852,00000.064756,-00000.349875,00000.068555,-00000.004641,-00000.020943
0000000001065,00002.546762,00001.857182,00002.125068,00002.741211,00002.683098,00002.644245,00002.702292,00003.328867,00002.781150,00002.065518,-00000.301906,00000.064674,-00000.349911,00000.068561,-00000.004290,-00000.020814
0000000001066,00002.547122,00001.857409,00002.125243,00002.740894,00002.683547,00002.644183,00002.702451,00003.329053,00002.781192,00002.065714,-00000.301953,00000.064560,-00000.350090,00000.068519,-00000.004313,-00000.020731
0000000001067,00002.547177,00001.857467,00002.125063,00002.741009,00002.683194,00002.644313,00002.702073,00003.328714,00002.781177,00002.065661,-00000.302362,00000.064489,-00000.350121,00000.068161,-00000.004377,-00000.020621
0000000001068,00002.547120,00001.857661,00002.125212,00002.740739,00002.683576,00002.644261,00002.702208,00003.328873,00002.781213,00002.065828,-00000.302401,00000.064392,-00000.350274,00000.068126,-00000.004398,-00000.020550
0000000001069,00002.547168,00001.857710,00002.125059,00002.741200,00002.683275,00002.644371,00002.702249,00003.328947,00002.781200,00002.065783,-00000.302387,00000.064332,-00000.350663,00000.067821,-00000.004452,-00000.020457
0000000001070,00002.547119,00001.857875,00002.124823,00002.741696,00002.683237,00002.644327,00002.702365,00003.328719,00002.781593,00002.065562,-00000.302784,00000.063887,-00000.351156,00000.067791,-00000.004469,-00000.020397
0000000001071,00002.547885,00001.857917,00002.125055,00002.742089,00002.683707,00002.644421,00002.702399,00003.329145,00002.781582,00002.066249,-00000.302771,00000.063473,-00000.351487,00000.067531,-00000.004516,-00000.020318
0000000001072,00002.548207,00001.858057,00002.124854,00002.742511,00002.683675,00002.644383,00002.702135,00003.328588,00002.781554,00002.066424,-00000.303109,00000.063457,-00000.351907,00000.067143,-00000.004530,-00000.020629
0000000001073,00002.549222,00001.857730,00002.125052,00002.742845,00002.683712,00002.644463,00002.701801,00003.328950,00002.781182,00002.066647,-00000.303098,00000.063104,-00000.351826,00000.066922,-00000.004570,-00000.020924
0000000001074,00002.549858,00001.857849,00002.125244,00002.742842,00002.684048,00002.644794,00002.701939,00003.329202,00002.781158,00002.067158,-00000.303386,00000.063091,-00000.351821,00000.066954,-00000.004582,-00000.021189
0000000001075,00002.549997,00001.858297,00002.125413,00002.743489,00002.684079,00002.644862,00002.702018,00003.329148,00002.781567,00002.066985,-00000.303739,00000.063153,-00000.351752,00000.067129,-00000.004616,-00000.021441
0000000001076,00002.550539,00001.858398,00002.125576,00002.743486,00002.684002,00002.644780,00002.701773,00003.329362,00002.781547,00002.067057,-00000.303984,00000.063142,-00000.351747,00000.067519,-00000.004264,-00000.021304
0000000001077,00002.551019,00001.858416,00002.125356,00002.743674,00002.683666,00002.645201,00002.701477,00003.329316,00002.781532,00002.067272,-00000.304285,00000.063195,-00000.351689,00000.068031,-00000.003929,-00000.021155
0000000001078,00002.551118,00001.858503,00002.125133,00002.743672,00002.683963,00002.645132,00002.701631,00003.329136,00002.781515,00002.067334,-00000.304494,00000.062822,-00000.351684,00000.068000,-00000.003992,-00000.021038
0000000001079,00002.551164,00001.858518,00002.124946,00002.743832,00002.684040,00002.645490,00002.701742,00003.329459,00002.781865,00002.067518,-00000.304750,00000.062505,-00000.351997,00000.068073,-00000.004434,-00000.021274
0000000001080,00002.551248,00001.858229,00002.125118,00002.743830,00002.684293,00002.645431,00002.701873,00003.329668,00002.781850,00002.067570,-00000.304927,00000.062188,-00000.352357,00000.067684,-00000.004850,-00000.021538
0000000001081,00002.550925,00001.858242,00002.124233,00002.743966,00002.684358,00002.645373,00002.701968,00003.329581,00002.782148,00002.067363,-00000.305145,00000.061918,-00000.352623,00000.067383,-00000.005225,-00000.021739
0000000001082,00002.550633,00001.858358,00002.122929,00002.743964,00002.684574,00002.645323,00002.702442,00003.329396,00002.782499,00002.067408,-00000.305296,00000.061647,-00000.353292,00000.067052,-00000.005580,-00000.021963
0000000001083,00002.550358,00001.858370,00002.121450,00002.744081,00002.684629,00002.645274,00002.702522,00003.329322,00002.782753,00002.067595,-00000.305482,00000.061055,-00000.353519,00000.067158,-00000.005537,-00000.022134
0000000001084,00002.550473,00001.858469,00002.119977,00002.744442,00002.684450,00002.645594,00002.702563,00003.329165,00002.783051,00002.067633,-00000.305611,00000.060825,-00000.354088,00000.067239,-00000.005476,-00000.022325
0000000001085,00002.550601,00001.858115,00002.119081,00002.744178,00002.684497,00002.645552,00002.702632,00003.329464,00002.782904,00002.067792,-00000.305769,00000.060683,-00000.354281,00000.067330,-00000.005439,-00000.022471
0000000001086,00002.550699,00001.857837,00002.118189,00002.744123,00002.684344,00002.645462,00002.702304,00003.329693,00002.782795,00002.067824,-00000.305878,00000.060487,-00000.354403,00000.067399,-00000.005750,-00000.022633
0000000001087,00002.550445,00001.857899,00002.117064,00002.743898,00002.684385,00002.645426,00002.702362,00003.329585,00002.783033,00002.067960,-00000.306013,00000.060366,-00000.354567,00000.067476,-00000.006444,-00000.022757
0000000001088,00002.550166,00001.858025,00002.115579,00002.743851,00002.684255,00002.645349,00002.702446,00003.329417,00002.783303,00002.067987,-00000.306106,00000.060200,-00000.355034,00000.067172,-00000.006709,-00000.022896
0000000001089,00002.549950,00001.858078,00002.114258,00002.743660,00002.684289,00002.645319,00002.702496,00003.329325,00002.783506,00002.068103,-00000.306221,00000.060097,-00000.355174,00000.067238,-00000.006937,-00000.023001
0000000001090,00002.549712,00001.858185,00002.113358,00002.743620,00002.684178,00002.644891,00002.702567,00003.329183,00002.783373,00002.068126,-00000.306300,00000.059955,-00000.355208,00000.067342,-00000.007162,-00000.023119
0000000001091,00002.549891,00001.857867,00002.112596,00002.743819,00002.684207,00002.645227,00002.702609,00003.329830,00002.783182,00002.068587,-00000.306398,00000.059868,-00000.355690,00000.067035,-00000.007357,-00000.023209
0000000001092,00002.549689,00001.857958,00002.111829,00002.743785,00002.684113,00002.645226,00002.702670,00003.329708,00002.783432,00002.068607,-00000.306465,00000.059747,-00000.356082,00000.066761,-00000.007911,-00000.023309
0000000001093,00002.549841,00001.857688,00002.111180,00002.743230,00002.684138,00002.645150,00002.702706,00003.329897,00002.783270,00002.068999,-00000.306548,00000.059672,-00000.356492,00000.066500,-00000.008440,-00000.023386
0000000001094,00002.550394,00001.857765,00002.110890,00002.743201,00002.684058,00002.645148,00002.702757,00003.330156,00002.783120,00002.069379,-00000.306606,00000.059569,-00000.356826,00000.066266,-00000.008912,-00000.023471
0000000001095,00002.550524,00001.857898,00002.109975,00002.743454,00002.684079,00002.644721,00002.702788,00003.329953,00002.783344,00002.069350,-00000.306676,00000.059506,-00000.357175,00000.066044,-00000.008999,-00000.023536
0000000001096,00002.550995,00001.857964,00002.109366,00002.743429,00002.684011,00002.644719,00002.702469,00003.330174,00002.783216,00002.069311,-00000.306725,00000.059056,-00000.357459,00000.065845,-00000.009038,-00000.023609
0000000001097,00002.551468,00001.858077,00002.108950,00002.743282,00002.683666,00002.645081,00002.702133,00003.330365,00002.783045,00002.069286,-00000.306786,00000.059002,-00000.357394,00000.065656,-00000.009112,-00000.023664
0000000001098,00002.551143,00001.857770,00002.108430,00002.742898,00002.683608,00002.645080,00002.702224,00003.330552,00002.782936,00002.069616,-00000.306827,00000.058981,-00000.357636,00000.065486,-00000.009145,-00000.023726
0000000001099,00002.551183,00001.857866,00002.108076,00002.742772,00002.684040,00002.644662,00002.702663,00003.330352,00002.782790,00002.069957,-00000.306878,00000.058935,-00000.357943,00000.065325,-00000.009208,-00000.023773
0000000001100,00002.550907,00001.857968,00002.107634,00002.742808,00002.683990,00002.644661,00002.702741,00003.330149,00002.783060,00002.069875,-00000.306914,00000.058555,-00000.358149,00000.065181,-00000.009236,-00000.023463
0000000001101,00002.550941,00001.858050,00002.108058,00002.742701,00002.683995,00002.644669,00002.702751,00003.329978,00002.783299,00002.070166,-00000.306958,00000.058153,-00000.358410,00000.065044,-00000.009290,-00000.023503
0000000001102,00002.551069,00001.858136,00002.108771,00002.742732,00002.683953,00002.644668,00002.702818,00003.329805,00002.783529,00002.070821,-00000.306988,00000.057829,-00000.358585,00000.065284,-00000.009314,-00000.023602
0000000001103,00002.551823,00001.858206,00002.110220,00002.743004,00002.684320,00002.645037,00002.702827,00003.330023,00002.783369,00002.071795,-00000.307025,00000.057487,-00000.359171,00000.065167,-00000.009722,-00000.023636
0000000001104,00002.552294,00001.858280,00002.111189,00002.743030,00002.684284,00002.644673,00002.702883,00003.329876,00002.783202,00002.072353,-00000.307413,00000.057211,-00000.359683,00000.065372,-00000.009743,-00000.023720
0000000001105,00002.552574,00001.858702,00002.112060,00002.743624,00002.684234,00002.644625,00002.702891,00003.329698,00002.783429,00002.072818,-00000.307445,00000.056920,-00000.359818,00000.065635,-00000.009728,-00000.023750
0000000001106,00002.553338,00001.859127,00002.112885,00002.744372,00002.684204,00002.644678,00002.702939,00003.329210,00002.783649,00002.073656,-00000.307413,00000.057048,-00000.359891,00000.065446,-00000.010108,-00000.023821
0000000001107,00002.554302,00001.859124,00002.113990,00002.744877,00002.684161,00002.644999,00002.702946,00003.329421,00002.783843,00002.074778,-00000.307440,00000.057163,-00000.359644,00000.065671,-00000.010095,-00000.023483
0000000001108,00002.554589,00001.859486,00002.114692,00002.745151,00002.684135,00002.645045,00002.702987,00003.329369,00002.784393,00002.075854,-00000.307413,00000.056909,-00000.359706,00000.065510,-00000.010056,-00000.023181
0000000001109,00002.555047,00001.859120,00002.115632,00002.745219,00002.684098,00002.644955,00002.702630,00003.329549,00002.784195,00002.076810,-00000.307435,00000.056644,-00000.359858,00000.065338,-00000.010045,-00000.023256
0000000001110,00002.555655,00001.859429,00002.116593,00002.745452,00002.684439,00002.645357,00002.703027,00003.329504,00002.784663,00002.077726,-00000.307412,00000.056428,-00000.360274,00000.064838,-00000.010375,-00000.022999
0000000001111,00002.555681,00001.859843,00002.117030,00002.745873,00002.684408,00002.645281,00002.703086,00003.329295,00002.785220,00002.078539,-00000.307432,00000.056203,-00000.360403,00000.064329,-00000.010728,-00000.022700
0000000001112,00002.556199,00001.859743,00002.117848,00002.746071,00002.684698,00002.645623,00002.703062,00003.329982,00002.785256,00002.079681,-00000.307412,00000.056019,-00000.360394,00000.063904,-00000.011009,-00000.022482
0000000001113,00002.556221,00001.859733,00002.118220,00002.746429,00002.685034,00002.645558,00002.703475,00003.329441,00002.785730,00002.080736,-00000.307791,00000.055827,-00000.360505,00000.063833,-00000.011310,-00000.022590
0000000001114,00002.556662,00001.860010,00002.118554,00002.746961,00002.685281,00002.645486,00002.703454,00003.329301,00002.786124,00002.081346,-00000.308137,00000.055670,-00000.360497,00000.063834,-00000.011549,-00000.022404
0000000001115,00002.557044,00001.860001,00002.119234,00002.747628,00002.685205,00002.646157,00002.703442,00003.329565,00002.786527,00002.082245,-00000.308097,00000.055870,-00000.360591,00000.063774,-00000.011442,-00000.022133
0000000001116,00002.557781,00001.860238,00002.119880,00002.748807,00002.685415,00002.646458,00002.703788,00003.329446,00002.786862,00002.083126,-00000.308029,00000.055736,-00000.360585,00000.063775,-00000.011282,-00000.021975
0000000001117,00002.558470,00001.860230,00002.120459,00002.749012,00002.685713,00002.646666,00002.703415,00003.329671,00002.786843,00002.083891,-00000.308358,00000.055543,-00000.360664,00000.063723,-00000.011192,-00000.021744
0000000001118,00002.559098,00001.860068,00002.120647,00002.749652,00002.685529,00002.647286,00002.703346,00003.329570,00002.786766,00002.084279,-00000.308663,00000.055430,-00000.360659,00000.064087,-00000.011056,-00000.021609
0000000001119,00002.559321,00001.860425,00002.120777,00002.750190,00002.685782,00002.647463,00002.703755,00003.329399,00002.787112,00002.084930,-00000.308580,00000.055628,-00000.360727,00000.064406,-00000.010979,-00000.021413
0000000001120,00002.559492,00001.860287,00002.120937,00002.750735,00002.685626,00002.647991,00002.703333,00003.329675,00002.787409,00002.085623,-00000.308839,00000.055532,-00000.360360,00000.064715,-00000.010863,-00000.021298
0000000001121,00002.559682,00001.860228,00002.121410,00002.750830,00002.685479,00002.648141,00002.702955,00003.329530,00002.787341,00002.086177,-00000.308769,00000.055338,-00000.360780,00000.064624,-00000.010797,-00000.021494
0000000001122,00002.559466,00001.860111,00002.121546,00002.751294,00002.685345,00002.648227,00002.702597,00003.329402,00002.787231,00002.086405,-00000.308627,00000.055256,-00000.361193,00000.064162,-00000.010699,-00000.021396
0000000001123,00002.559264,00001.859698,00002.121949,00002.751375,00002.685220,00002.648356,00002.702275,00003.329641,00002.787173,00002.086876,-00000.308567,00000.054728,-00000.361551,00000.063722,-00000.011006,-00000.021563
0000000001124,00002.559080,00001.859961,00002.122065,00002.751407,00002.685470,00002.648066,00002.702332,00003.329532,00002.787442,00002.087070,-00000.308809,00000.054658,-00000.361903,00000.062965,-00000.011285,-00000.021843
0000000001125,00002.558909,00001.859609,00002.122045,00002.751113,00002.685363,00002.647813,00002.702059,00003.329736,00002.787393,00002.087471,-00000.308758,00000.054571,-00000.362570,00000.062228,-00000.011546,-00000.021985
0000000001126,00002.558752,00001.859107,00002.122144,00002.750778,00002.685213,00002.647567,00002.702107,00003.329643,00002.786896,00002.087636,-00000.308964,00000.054149,-00000.362869,00000.061584,-00000.011783,-00000.022223
0000000001127,00002.558606,00001.859170,00002.122127,00002.750527,00002.685485,00002.647351,00002.702237,00003.329454,00002.786854,00002.087615,-00000.309283,00000.053349,-00000.363801,00000.062407,-00000.012006,-00000.022344
0000000001128,00002.558110,00001.859106,00002.122211,00002.750605,00002.685357,00002.647141,00002.702279,00003.329375,00002.787157,00002.087755,-00000.309458,00000.052990,-00000.364781,00000.063673,-00000.012208,-00000.022183
0000000001129,00002.557986,00001.859160,00002.122196,00002.751117,00002.685225,00002.647320,00002.702389,00003.329214,00002.787484,00002.087738,-00000.309730,00000.052672,-00000.365211,00000.064374,-00000.012397,-00000.021923
0000000001130,00002.557926,00001.859105,00002.122268,00002.751183,00002.685116,00002.647504,00002.702424,00003.329147,00002.787742,00002.087857,-00000.309879,00000.052366,-00000.366045,00000.065451,-00000.012569,-00000.021787
0000000001131,00002.558183,00001.859151,00002.122619,00002.750894,00002.685367,00002.647657,00002.702156,00003.329372,00002.787657,00002.087842,-00000.310111,00000.052096,-00000.366411,00000.066048,-00000.012731,-00000.021566
0000000001132,00002.558132,00001.859105,00002.123042,00002.750950,00002.685275,00002.647814,00002.701823,00003.329678,00002.787514,00002.087943,-00000.310238,00000.051835,-00000.366759,00000.066602,-00000.012877,-00000.021450
0000000001133,00002.557988,00001.859144,00002.122978,00002.751066,00002.685126,00002.647943,00002.701957,00003.329507,00002.788168,00002.087931,-00000.310435,00000.051242,-00000.367070,00000.067110,-00000.013014,-00000.021261
0000000001134,00002.557945,00001.859467,00002.122976,00002.751477,00002.685409,00002.648440,00002.702036,00003.329404,00002.788772,00002.088017,-00000.310543,00000.050658,-00000.367366,00000.067582,-00000.013139,-00000.021162
0000000001135,00002.558185,00001.859500,00002.123284,00002.751576,00002.685645,00002.648550,00002.702150,00003.329621,00002.788603,00002.088369,-00000.310711,00000.050153,-00000.367632,00000.068015,-00000.013256,-00000.021002
0000000001136,00002.558148,00001.859412,00002.123282,00002.751563,00002.685524,00002.648247,00002.702218,00003.329171,00002.788754,00002.088442,-00000.310803,00000.050018,-00000.367884,00000.068780,-00000.012999,-00000.020918
0000000001137,00002.558353,00001.859441,00002.123181,00002.751647,00002.685725,00002.647978,00002.702315,00003.328994,00002.788610,00002.088742,-00000.310945,00000.049951,-00000.368109,00000.069510,-00000.012736,-00000.020781
0000000001138,00002.558684,00001.859366,00002.123542,00002.751636,00002.685984,00002.647720,00002.702373,00003.328973,00002.788376,00002.088805,-00000.311024,00000.049836,-00000.367961,00000.070161,-00000.012880,-00000.020710
0000000001139,00002.558858,00001.859753,00002.123457,00002.751708,00002.686155,00002.647854,00002.702818,00003.328822,00002.788616,00002.088697,-00000.311145,00000.049779,-00000.367790,00000.070784,-00000.013019,-00000.020594
0000000001140,00002.559141,00001.859326,00002.123764,00002.751335,00002.686014,00002.647997,00002.702505,00003.328804,00002.788416,00002.089113,-00000.311212,00000.049681,-00000.367664,00000.071338,-00000.013142,-00000.020533
0000000001141,00002.558926,00001.859293,00002.123692,00002.751396,00002.685796,00002.647749,00002.702521,00003.328676,00002.788258,00002.089021,-00000.311316,00000.049633,-00000.367882,00000.071505,-00000.012897,-00000.020434
0000000001142,00002.559529,00001.859293,00002.123953,00002.751805,00002.686038,00002.648233,00002.702617,00003.329024,00002.788451,00002.089375,-00000.311372,00000.049550,-00000.367774,00000.071976,-00000.012639,-00000.020382
0000000001143,00002.560072,00001.859264,00002.124254,00002.752220,00002.685854,00002.648747,00002.702631,00003.328914,00002.788679,00002.089297,-00000.311460,00000.049508,-00000.367597,00000.072481,-00000.012430,-00000.020297
0000000001144,00002.560585,00001.859264,00002.124477,00002.752205,00002.685697,00002.649160,00002.702350,00003.329210,00002.788481,00002.089599,-00000.311509,00000.049437,-00000.367505,00000.072883,-00000.012210,-00000.020616
0000000001145,00002.560685,00001.859603,00002.124370,00002.752558,00002.685902,00002.648872,00002.702361,00003.328754,00002.788675,00002.089532,-00000.311584,00000.049402,-00000.367354,00000.073313,-00000.012033,-00000.020907
0000000001146,00002.560759,00001.859603,00002.124197,00002.752545,00002.686132,00002.648860,00002.702485,00003.328281,00002.788869,00002.089426,-00000.311625,00000.049342,-00000.367276,00000.074017,-00000.011846,-00000.021178
0000000001147,00002.560843,00001.859528,00002.124106,00002.752846,00002.685944,00002.648978,00002.702495,00003.328255,00002.788671,00002.089732,-00000.311689,00000.049312,-00000.367510,00000.074383,-00000.011695,-00000.021426
0000000001148,00002.560907,00001.859528,00002.123959,00002.753198,00002.685776,00002.648605,00002.702600,00003.327852,00002.788837,00002.089642,-00000.311724,00000.049261,-00000.367807,00000.074620,-00000.011536,-00000.021657
0000000001149,00002.560979,00001.859465,00002.123881,00002.753454,00002.685616,00002.648705,00002.702609,00003.327830,00002.789031,00002.089540,-00000.311778,00000.049235,-00000.368006,00000.074932,-00000.011770,-00000.021505
0000000001150,00002.561032,00001.859464,00002.124119,00002.753391,00002.685836,00002.648751,00002.702698,00003.328213,00002.788809,00002.089826,-00000.311445,00000.049191,-00000.368258,00000.074771,-00000.011997,-00000.021702
0000000001151,00002.561094,00001.859410,00002.124416,00002.753246,00002.686063,00002.648473,00002.702705,00003.328194,00002.788612,00002.089739,-00000.311491,00000.049170,-00000.368428,00000.074673,-00000.012196,-00000.021935
0000000001152,00002.561140,00001.859773,00002.124255,00002.753917,00002.686250,00002.648512,00002.703144,00003.328157,00002.788785,00002.089982,-00000.311571,00000.048770,-00000.368643,00000.074536,-00000.012390,-00000.022103
0000000001153,00002.561555,00001.859727,00002.124508,00002.754157,00002.686080,00002.649001,00002.703150,00003.328504,00002.788618,00002.090271,-00000.311610,00000.048388,-00000.369150,00000.074453,-00000.012560,-00000.022302
0000000001154,00002.561593,00001.860036,00002.124371,00002.754366,00002.686240,00002.648671,00002.703524,00003.328473,00002.788765,00002.090116,-00000.311678,00000.048048,-00000.369696,00000.074337,-00000.012724,-00000.022444
0000000001155,00002.561584,00001.860360,00002.124223,00002.754933,00002.686095,00002.649088,00002.703529,00003.328405,00002.788985,00002.089999,-00000.311348,00000.047723,-00000.369765,00000.074266,-00000.012869,-00000.022613
0000000001156,00002.561617,00001.860260,00002.124107,00002.754748,00002.685868,00002.648807,00002.703485,00003.328016,00002.789111,00002.089866,-00000.311406,00000.047433,-00000.369867,00000.074166,-00000.013009,-00000.022734
0000000001157,00002.562335,00001.860172,00002.124344,00002.755230,00002.686108,00002.649162,00002.703489,00003.328321,00002.788936,00002.090129,-00000.311488,00000.047520,-00000.369925,00000.074106,-00000.013132,-00000.022879
0000000001158,00002.562726,00001.859724,00002.124608,00002.755436,00002.685915,00002.649285,00002.703088,00003.328715,00002.788680,00002.090379,-00000.311175,00000.047636,-00000.370012,00000.074384,-00000.012888,-00000.022982
0000000001159,00002.562974,00001.859650,00002.124810,00002.755484,00002.686119,00002.649224,00002.703092,00003.328612,00002.788530,00002.090604,-00000.311245,00000.047710,-00000.370062,00000.074696,-00000.012630,-00000.023104
0000000001160,00002.563307,00001.859994,00002.124671,00002.756021,00002.686317,00002.649330,00002.703476,00003.328585,00002.788676,00002.090816,-00000.311340,00000.047808,-00000.369773,00000.074933,-00000.012423,-00000.023192
0000000001161,00002.563880,00001.859931,00002.124843,00002.756062,00002.686491,00002.649641,00002.703480,00003.328860,00002.788911,00002.091007,-00000.311400,00000.047871,-00000.369815,00000.074835,-00000.012203,-00000.023297
0000000001162,00002.564164,00001.859862,00002.124725,00002.756157,00002.686297,00002.650093,00002.703444,00003.329199,00002.789035,00002.091188,-00000.311119,00000.047592,-00000.369932,00000.074674,-00000.012390,-00000.023372
0000000001163,00002.563927,00001.860170,00002.124509,00002.756192,00002.686082,00002.649995,00002.703447,00003.329071,00002.789235,00002.090988,-00000.311170,00000.047283,-00000.369968,00000.074591,-00000.012203,-00000.023460
0000000001164,00002.563805,00001.860111,00002.124409,00002.756635,00002.685917,00002.650380,00002.703417,00003.328997,00002.789340,00002.090779,-00000.311293,00000.047046,-00000.370431,00000.074454,-00000.011999,-00000.023524
0000000001165,00002.563241,00001.860011,00002.124224,00002.756302,00002.686097,00002.650297,00002.703782,00003.328888,00002.789511,00002.090972,-00000.311336,00000.046782,-00000.370461,00000.074383,-00000.012202,-00000.023600
0000000001166,00002.562775,00001.860324,00002.124502,00002.755954,00002.686319,00002.650262,00002.704119,00003.329188,00002.789601,00002.090794,-00000.311441,00000.046580,-00000.370855,00000.074266,-00000.012391,-00000.023654
0000000001167,00002.562294,00001.859876,00002.124708,00002.755670,00002.686472,00002.650191,00002.704430,00003.329094,00002.789746,00002.090958,-00000.311478,00000.046356,-00000.370881,00000.074206,-00000.012564,-00000.023718
0000000001168,00002.561897,00001.859779,00002.124581,00002.755737,00002.686298,00002.650161,00002.704354,00003.328987,00002.789822,00002.090807,-00000.311205,00000.046184,-00000.370853,00000.074470,-00000.012363,-00000.023765
0000000001169,00002.561488,00001.860123,00002.124393,00002.755495,00002.686429,00002.650101,00002.704618,00003.328908,00002.789946,00002.090583,-00000.311236,00000.045993,-00000.370876,00000.074781,-00000.012147,-00000.023819
0000000001170,00002.561513,00001.860041,00002.124286,00002.755552,00002.686281,00002.650075,00002.704554,00003.328816,00002.790011,00002.090454,-00000.311366,00000.045847,-00000.370852,00000.075005,-00000.011975,-00000.023859
0000000001171,00002.561527,00001.860334,00002.124126,00002.755347,00002.686392,00002.649661,00002.704416,00003.328749,00002.790116,00002.090264,-00000.311393,00000.045321,-00000.370871,00000.075271,-00000.011792,-00000.023543
0000000001172,00002.561548,00001.860264,00002.124397,00002.755032,00002.686629,00002.649639,00002.704361,00003.329034,00002.789809,00002.090155,-00000.311503,00000.045197,-00000.370851,00000.075099,-00000.011283,-00000.023576
0000000001173,00002.561561,00001.860151,00002.124624,00002.754857,00002.686360,00002.650012,00002.703881,00003.329339,00002.789898,00002.089993,-00000.311526,00000.044750,-00000.370867,00000.074962,-00000.011127,-00000.023307
0000000001174,00002.561579,00001.860091,00002.124492,00002.754589,00002.685836,00002.649994,00002.703834,00003.329219,00002.789999,00002.089899,-00000.311620,00000.044644,-00000.370850,00000.074815,-00000.011056,-00000.023335
0000000001175,00002.561952,00001.859994,00002.124685,00002.754440,00002.685971,00002.650311,00002.703789,00003.329479,00002.790075,00002.090124,-00000.311640,00000.044626,-00000.370864,00000.074699,-00000.010924,-00000.023469
0000000001176,00002.561605,00001.859944,00002.124573,00002.754212,00002.685888,00002.650296,00002.703749,00003.329376,00002.790161,00002.090045,-00000.311720,00000.044173,-00000.371212,00000.074574,-00000.010864,-00000.023493
0000000001177,00002.561197,00001.859862,00002.124374,00002.754448,00002.685639,00002.650203,00002.703710,00003.329235,00002.790226,00002.089874,-00000.311736,00000.043794,-00000.371224,00000.074475,-00000.010750,-00000.023607
0000000001178,00002.561264,00001.859818,00002.124279,00002.754617,00002.685568,00002.650553,00002.703313,00003.329148,00002.789937,00002.089806,-00000.311805,00000.043409,-00000.371520,00000.074731,-00000.010699,-00000.023628
0000000001179,00002.561279,00001.859748,00002.124110,00002.754818,00002.685357,00002.650837,00002.703280,00003.329027,00002.789992,00002.089660,-00000.311819,00000.043087,-00000.371530,00000.075010,-00000.010603,-00000.023725
0000000001180,00002.561337,00001.860074,00002.124028,00002.754599,00002.685297,00002.650772,00002.703305,00003.328953,00002.790108,00002.089603,-00000.311877,00000.043121,-00000.371419,00000.075228,-00000.010559,-00000.023742
0000000001181,00002.561350,00001.860015,00002.123884,00002.754770,00002.685117,00002.651013,00002.703277,00003.328850,00002.790155,00002.089479,-00000.311889,00000.043210,-00000.371065,00000.075465,-00000.010478,-00000.023825
0000000001182,00002.561398,00001.859929,00002.124178,00002.754220,00002.685428,00002.650595,00002.703298,00003.329150,00002.789892,00002.089792,-00000.311938,00000.043239,-00000.370971,00000.075651,-00000.010440,-00000.023840
0000000001183,00002.561047,00001.859879,00002.124418,00002.754003,00002.685638,00002.650438,00002.703637,00003.329063,00002.789932,00002.090049,-00000.311948,00000.043315,-00000.371032,00000.075490,-00000.010371,-00000.023910
0000000001184,00002.561088,00001.859806,00002.124668,00002.753898,00002.685903,00002.650082,00002.703655,00003.328955,00002.789707,00002.090317,-00000.311990,00000.043340,-00000.370952,00000.075648,-00000.010339,-00000.023923
0000000001185,00002.561152,00001.859400,00002.124510,00002.753351,00002.685718,00002.649585,00002.703218,00003.328881,00002.789378,00002.090173,-00000.311999,00000.043042,-00000.371004,00000.075874,-00000.010280,-00000.023983
0000000001186,00002.561550,00001.859338,00002.124723,00002.753261,00002.685581,00002.649645,00002.702871,00003.328789,00002.789187,00002.090037,-00000.312035,00000.043063,-00000.370936,00000.076009,-00000.009890,-00000.023993
0000000001187,00002.561967,00001.859356,00002.124951,00002.753521,00002.685424,00002.649948,00002.702861,00003.328726,00002.788907,00002.089915,-00000.312042,00000.043172,-00000.370981,00000.076201,-00000.009840,-00000.024044
0000000001188,00002.562306,00001.859303,00002.125132,00002.753807,00002.685308,00002.650362,00002.702566,00003.329011,00002.789107,00002.090162,-00000.312073,00000.043190,-00000.370560,00000.076316,-00000.009871,-00000.024053
0000000001189,00002.562298,00001.859318,00002.124963,00002.754028,00002.685174,00002.650620,00002.702558,00003.329319,00002.789232,00002.090421,-00000.312079,00000.043282,-00000.370235,00000.076479,-00000.009828,-00000.024097
0000000001190,00002.562223,00001.859273,00002.124755,00002.754272,00002.685075,00002.650609,00002.702669,00003.328836,00002.789402,00002.090269,-00000.312105,00000.043298,-00000.369876,00000.076577,-00000.009854,-00000.024105
0000000001191,00002.562579,00001.859285,00002.124974,00002.754823,00002.685324,00002.650828,00002.702662,00003.329099,00002.789508,00002.090489,-00000.312110,00000.043376,-00000.369600,00000.076716,-00000.009817,-00000.024142
0000000001192,00002.562879,00001.859247,00002.125159,00002.755031,00002.685239,00002.651182,00002.702757,00003.329414,00002.789653,00002.090722,-00000.312133,00000.043390,-00000.369658,00000.076799,-00000.009840,-00000.024148
0000000001193,00002.563182,00001.859258,00002.125346,00002.755137,00002.685451,00002.651006,00002.703114,00003.330000,00002.789744,00002.091272,-00000.312137,00000.043457,-00000.369422,00000.076918,-00000.009446,-00000.024180
0000000001194,00002.563437,00001.859588,00002.125141,00002.755677,00002.685742,00002.651307,00002.703194,00003.330268,00002.789867,00002.091471,-00000.312156,00000.043105,-00000.369471,00000.076989,-00000.009465,-00000.024185
0000000001195,00002.563695,00001.859597,00002.124937,00002.755767,00002.685922,00002.651520,00002.703135,00003.330404,00002.789581,00002.091576,-00000.312160,00000.042799,-00000.369633,00000.076727,-00000.009492,-00000.024212
0000000001196,00002.563912,00001.859516,00002.124762,00002.756226,00002.685807,00002.651777,00002.703204,00003.330269,00002.790049,00002.091746,-00000.312176,00000.042863,-00000.369675,00000.076424,-00000.009509,-00000.024217
0000000001197,00002.564132,00001.859886,00002.124589,00002.756666,00002.685961,00002.651595,00002.703154,00003.330023,00002.790168,00002.091835,-00000.312179,00000.042965,-00000.369451,00000.076201,-00000.009895,-00000.024240
0000000001198,00002.564317,00001.860180,00002.124803,00002.757057,00002.686588,00002.651813,00002.703938,00003.330271,00002.790567,00002.092342,-00000.311830,00000.043019,-00000.369124,00000.076307,-00000.009909,-00000.024244
0000000001199,00002.564504,00001.860495,00002.124655,00002.757431,00002.686719,00002.651659,00002.704258,00003.330061,00002.791031,00002.092419,-00000.311470,00000.043107,-00000.369295,00000.076480,-00000.009875,-00000.024263
0000000001200,00002.564298,00001.860382,00002.124474,00002.757402,00002.686890,00002.651482,00002.704199,00003.329909,00002.791007,00002.092487,-00000.311536,00000.043153,-00000.369379,00000.076569,-00000.009887,-00000.024267
0000000001201,00002.564457,00001.860650,00002.124349,00002.757720,00002.687002,00002.651350,00002.704472,00003.329730,00002.791403,00002.092552,-00000.311592,00000.043227,-00000.369525,00000.076716,-00000.009858,-00000.024283
0000000001202,00002.564645,00001.860917,00002.124558,00002.757695,00002.687510,00002.651562,00002.704785,00003.329964,00002.791382,00002.092974,-00000.311648,00000.043266,-00000.369597,00000.076793,-00000.009505,-00000.024286
0000000001203,00002.564781,00001.860783,00002.124813,00002.757603,00002.687605,00002.651813,00002.704654,00003.330175,00002.790993,00002.093392,-00000.311333,00000.043329,-00000.369722,00000.076918,-00000.009117,-00000.024300
0000000001204,00002.564941,00001.860647,00002.124629,00002.757582,00002.687313,00002.651631,00002.704195,00003.330374,00002.790613,00002.093388,-00000.311018,00000.043363,-00000.369783,00000.076983,-00000.008817,-00000.024303
0000000001205,00002.564693,00001.860533,00002.124484,00002.757141,00002.687393,00002.651119,00002.704084,00003.330190,00002.790282,00002.093018,-00000.310750,00000.043417,-00000.369888,00000.076727,-00000.008850,-00000.024315
0000000001206,00002.564467,00001.860417,00002.124689,00002.756760,00002.687507,00002.650964,00002.704056,00003.330359,00002.789959,00002.093014,-00000.310481,00000.043445,-00000.369941,00000.076419,-00000.008957,-00000.024317
0000000001207,00002.563893,00001.860682,00002.124566,00002.756385,00002.687576,00002.650891,00002.704324,00003.330203,00002.790040,00002.093063,-00000.310253,00000.043491,-00000.370393,00000.075839,-00000.008985,-00000.024327
0000000001208,00002.563700,00001.860584,00002.124740,00002.756060,00002.687310,00002.650759,00002.703938,00003.330347,00002.789764,00002.092697,-00000.310025,00000.043515,-00000.370438,00000.075577,-00000.009076,-00000.024329
0000000001209,00002.563212,00001.860447,00002.124635,00002.755741,00002.687006,00002.650697,00002.703803,00003.329852,00002.789833,00002.092375,-00000.309830,00000.043554,-00000.370460,00000.075808,-00000.009100,-00000.024338
0000000001210,00002.562322,00001.860363,00002.124421,00002.755102,00002.686779,00002.650221,00002.703837,00003.329249,00002.789962,00002.092064,-00000.309273,00000.043937,-00000.370135,00000.075948,-00000.009178,-00000.024339
0000000001211,00002.561907,00001.860610,00002.124695,00002.754467,00002.686883,00002.649806,00002.704085,00003.329190,00002.789657,00002.092152,-00000.309108,00000.043971,-00000.369792,00000.076145,-00000.008835,-00000.024346
0000000001212,00002.561875,00001.860538,00002.124875,00002.753923,00002.686690,00002.649764,00002.704114,00003.329402,00002.789404,00002.092250,-00000.308996,00000.043934,-00000.369878,00000.075901,-00000.008539,-00000.024348
0000000001213,00002.561521,00001.860748,00002.124745,00002.753745,00002.686778,00002.649773,00002.703962,00003.329351,00002.789508,00002.091963,-00000.308855,00000.043962,-00000.369948,00000.075706,-00000.008247,-00000.024354
0000000001214,00002.561494,00001.860687,00002.124899,00002.753282,00002.686977,00002.649737,00002.703987,00003.329532,00002.789292,00002.092046,-00000.308760,00000.043931,-00000.370022,00000.075498,-00000.008357,-00000.024355
0000000001215,00002.561555,00001.860503,00002.125151,00002.753131,00002.686690,00002.649745,00002.703858,00003.329489,00002.789017,00002.091802,-00000.308640,00000.043955,-00000.369719,00000.075332,-00000.008472,-00000.024361
0000000001216,00002.561532,00001.860451,00002.124919,00002.753100,00002.686496,00002.650077,00002.703878,00003.329280,00002.788834,00002.091510,-00000.308560,00000.043929,-00000.369781,00000.075518,-00000.008566,-00000.024362
0000000001217,00002.561222,00001.860295,00002.124771,00002.752608,00002.686614,00002.650084,00002.703769,00003.328881,00002.788600,00002.091301,-00000.308458,00000.044312,-00000.369523,00000.075377,-00000.008663,-00000.024366
0000000001218,00002.560839,00001.860613,00002.124936,00002.752944,00002.687175,00002.650004,00002.704149,00003.328703,00002.788806,00002.091053,-00000.308389,00000.044653,-00000.369214,00000.075173,-00000.008743,-00000.024367
0000000001219,00002.560938,00001.860480,00002.124810,00002.753251,00002.686912,00002.650009,00002.704056,00003.328363,00002.788608,00002.090513,-00000.308302,00000.044979,-00000.368994,00000.075052,-00000.008826,-00000.024371
0000000001220,00002.561338,00001.860388,00002.124951,00002.753537,00002.686664,00002.650304,00002.704017,00003.328212,00002.788421,00002.090664,-00000.308243,00000.045269,-00000.368731,00000.074878,-00000.008894,-00000.024371
0000000001221,00002.561422,00001.860637,00002.124844,00002.754162,00002.686803,00002.650309,00002.704300,00003.327922,00002.788614,00002.090567,-00000.308169,00000.045546,-00000.368544,00000.075138,-00000.008965,-00000.024375
0000000001222,00002.561763,00001.860560,00002.124964,00002.754042,00002.686955,00002.650197,00002.703904,00003.328156,00002.788092,00002.090333,-00000.308119,00000.045793,-00000.368319,00000.075353,-00000.009023,-00000.024375
0000000001223,00002.561834,00001.860772,00002.125235,00002.754211,00002.687074,00002.649838,00002.704145,00003.328273,00002.788257,00002.090251,-00000.308056,00000.046030,-00000.368523,00000.075212,-00000.009083,-00000.024015
0000000001224,00002.562124,00001.860705,00002.125337,00002.754472,00002.686840,00002.649743,00002.704171,00003.328109,00002.788175,00002.090414,-00000.308014,00000.046240,-00000.368332,00000.075032,-00000.009132,-00000.023653
0000000001225,00002.562547,00001.860886,00002.125568,00002.754616,00002.686941,00002.649801,00002.704376,00003.328208,00002.788315,00002.090707,-00000.307960,00000.046441,-00000.368505,00000.074912,-00000.009184,-00000.023347
0000000001226,00002.563157,00001.860830,00002.125655,00002.754838,00002.686742,00002.649720,00002.704035,00003.328432,00002.788246,00002.090846,-00000.307924,00000.046257,-00000.368705,00000.074758,-00000.009226,-00000.023038
0000000001227,00002.563518,00001.860620,00002.125489,00002.754961,00002.686465,00002.650131,00002.703484,00003.328516,00002.788002,00002.090732,-00000.307879,00000.046065,-00000.368853,00000.074656,-00000.008906,-00000.023140
0000000001228,00002.564037,00001.860572,00002.125925,00002.755150,00002.686658,00002.650425,00002.703557,00003.329069,00002.788306,00002.090851,-00000.307848,00000.045909,-00000.368661,00000.074526,-00000.008579,-00000.022878
0000000001229,00002.564344,00001.860757,00002.125784,00002.755617,00002.686786,00002.650775,00002.703451,00003.329141,00002.788462,00002.090754,-00000.307809,00000.046109,-00000.368424,00000.074439,-00000.008670,-00000.022964
0000000001230,00002.564423,00001.861079,00002.125430,00002.756141,00002.686950,00002.650663,00002.703876,00003.328886,00002.789083,00002.090855,-00000.307783,00000.046338,-00000.368260,00000.074328,-00000.008392,-00000.022741
0000000001231,00002.565047,00001.860874,00002.125673,00002.756175,00002.686696,00002.650598,00002.703785,00003.328947,00002.788853,00002.090772,-00000.307750,00000.046508,-00000.368058,00000.074616,-00000.008469,-00000.022452
0000000001232,00002.565114,00001.860785,00002.125371,00002.756259,00002.686473,00002.650502,00002.703784,00003.328730,00002.788656,00002.090495,-00000.308090,00000.046703,-00000.367919,00000.074522,-00000.008595,-00000.022262
0000000001233,00002.565645,00001.860610,00002.125578,00002.756288,00002.686619,00002.650447,00002.703707,00003.329145,00002.788097,00002.090788,-00000.308062,00000.046848,-00000.367747,00000.074404,-00000.008661,-00000.022016
0000000001234,00002.565702,00001.860897,00002.125684,00002.756722,00002.687155,00002.650729,00002.704069,00003.329323,00002.788292,00002.090915,-00000.307989,00000.047014,-00000.367628,00000.074324,-00000.008768,-00000.022216
0000000001235,00002.566155,00001.860748,00002.125860,00002.756747,00002.687279,00002.650682,00002.704003,00003.329677,00002.787816,00002.091164,-00000.307965,00000.047138,-00000.367482,00000.074224,-00000.008824,-00000.022370
0000000001236,00002.566203,00001.860993,00002.125588,00002.756753,00002.687373,00002.650196,00002.704311,00003.329465,00002.787983,00002.090910,-00000.307903,00000.046916,-00000.367743,00000.074156,-00000.008916,-00000.022541
0000000001237,00002.566589,00001.860866,00002.125737,00002.756775,00002.687116,00002.650519,00002.704255,00003.329766,00002.787941,00002.090759,-00000.308245,00000.046659,-00000.367619,00000.074071,-00000.008601,-00000.022671
0000000001238,00002.566993,00001.860711,00002.125868,00002.756780,00002.686833,00002.650468,00002.703792,00003.329586,00002.787719,00002.090905,-00000.308555,00000.046470,-00000.367479,00000.074375,-00000.008315,-00000.022454
0000000001239,00002.567321,00001.860966,00002.125633,00002.757161,00002.686614,00002.650742,00002.703744,00003.329479,00002.788046,00002.090777,-00000.308847,00000.046251,-00000.367373,00000.074666,-00000.008047,-00000.022565
0000000001240,00002.567302,00001.860835,00002.125381,00002.757529,00002.686373,00002.650699,00002.703350,00003.329326,00002.787858,00002.090538,-00000.309111,00000.046090,-00000.367254,00000.074925,-00000.008167,-00000.022743
0000000001241,00002.567218,00001.861052,00002.125181,00002.757853,00002.686187,00002.650570,00002.703309,00003.328873,00002.787773,00002.090429,-00000.308996,00000.045904,-00000.367164,00000.075173,-00000.008302,-00000.022838
0000000001242,00002.567565,00001.860940,00002.125330,00002.757803,00002.686707,00002.650533,00002.703336,00003.329105,00002.787613,00002.090589,-00000.308858,00000.045767,-00000.367062,00000.075393,-00000.008404,-00000.022989
0000000001243,00002.567494,00001.861124,00002.125159,00002.758442,00002.686549,00002.650786,00002.703665,00003.329082,00002.788267,00002.090496,-00000.308760,00000.045608,-00000.366985,00000.075604,-00000.008519,-00000.023070
0000000001244,00002.568152,00001.861029,00002.125286,00002.758762,00002.686629,00002.651118,00002.703688,00003.329642,00002.788493,00002.090269,-00000.309005,00000.045492,-00000.366899,00000.075792,-00000.008606,-00000.023199
0000000001245,00002.568454,00001.860823,00002.125504,00002.758580,00002.686857,00002.650970,00002.703604,00003.329985,00002.788324,00002.090190,-00000.309285,00000.045356,-00000.367196,00000.075971,-00000.008703,-00000.023267
0000000001246,00002.568652,00001.860742,00002.125611,00002.758490,00002.686562,00002.650890,00002.703261,00003.330100,00002.788154,00002.089997,-00000.309494,00000.045257,-00000.367486,00000.075768,-00000.008777,-00000.023014
0000000001247,00002.568909,00001.860567,00002.125797,00002.758336,00002.686756,00002.650764,00002.703190,00003.330392,00002.788009,00002.090292,-00000.309732,00000.044779,-00000.367739,00000.075558,-00000.008860,-00000.022710
0000000001248,00002.569077,00001.860498,00002.125889,00002.758259,00002.686868,00002.650695,00002.703261,00003.330489,00002.787865,00002.090128,-00000.309547,00000.044695,-00000.367985,00000.075748,-00000.008923,-00000.022857
0000000001249,00002.568207,00001.860349,00002.125683,00002.757764,00002.687033,00002.650226,00002.703563,00003.330375,00002.788105,00002.090016,-00000.309749,00000.044651,-00000.368201,00000.075932,-00000.008994,-00000.022961
0000000001250,00002.567625,00001.860653,00002.125762,00002.757336,00002.687129,00002.650167,00002.703623,00003.330095,00002.787982,00002.090239,-00000.309592,00000.044579,-00000.368410,00000.075731,-00000.009047,-00000.023086
0000000001251,00002.567248,00001.860526,00002.125587,00002.756915,00002.686544,00002.650131,00002.703518,00003.329998,00002.788186,00002.090145,-00000.309402,00000.044542,-00000.368594,00000.075524,-00000.009108,-00000.023174
0000000001252,00002.566752,00001.860422,00002.125291,00002.756188,00002.686625,00002.649718,00002.703569,00003.329760,00002.788444,00002.089972,-00000.309630,00000.044481,-00000.368409,00000.075716,-00000.009153,-00000.023281
0000000001253,00002.566068,00001.860677,00002.125505,00002.755467,00002.686853,00002.649324,00002.703479,00003.329677,00002.788618,00002.089528,-00000.309468,00000.044449,-00000.368203,00000.075903,-00000.009204,-00000.023356
0000000001254,00002.565283,00001.860951,00002.125253,00002.755210,00002.686559,00002.649335,00002.703523,00003.329474,00002.788837,00002.089018,-00000.309300,00000.044397,-00000.368409,00000.075704,-00000.009243,-00000.023084
0000000001255,00002.564700,00001.861168,00002.125072,00002.754597,00002.686753,00002.649000,00002.703447,00003.329041,00002.788986,00002.088640,-00000.309525,00000.044369,-00000.368595,00000.075500,-00000.009287,-00000.022786
0000000001256,00002.564032,00001.861039,00002.124857,00002.754016,00002.686503,00002.648647,00002.703847,00003.328505,00002.789172,00002.088569,-00000.309745,00000.043962,-00000.368771,00000.075330,-00000.009320,-00000.022554
0000000001257,00002.563899,00001.861223,00002.125067,00002.753493,00002.686668,00002.648361,00002.703782,00003.328499,00002.789299,00002.088610,-00000.309936,00000.043576,-00000.368930,00000.074794,-00000.009720,-00000.022662
0000000001258,00002.563693,00001.861113,00002.124884,00002.753361,00002.686455,00002.648423,00002.703759,00003.328406,00002.789095,00002.088550,-00000.310123,00000.043593,-00000.369079,00000.074650,-00000.009748,-00000.022828
0000000001259,00002.563580,00001.860908,00002.124699,00002.752916,00002.686232,00002.648543,00002.703341,00003.328764,00002.788839,00002.088585,-00000.310286,00000.043627,-00000.369215,00000.074556,-00000.009726,-00000.022920
0000000001260,00002.563042,00001.861177,00002.124543,00002.752441,00002.686414,00002.648233,00002.703685,00003.328684,00002.789029,00002.088533,-00000.310445,00000.043641,-00000.369342,00000.074433,-00000.009750,-00000.023062
0000000001261,00002.563308,00001.861002,00002.124386,00002.752425,00002.686225,00002.648335,00002.703329,00003.328626,00002.789174,00002.088563,-00000.310584,00000.043307,-00000.369457,00000.074354,-00000.009731,-00000.023140
0000000001262,00002.563576,00001.860868,00002.124254,00002.752384,00002.686017,00002.648797,00002.703259,00003.328559,00002.788973,00002.088519,-00000.310720,00000.042956,-00000.369565,00000.074249,-00000.009751,-00000.022897
0000000001263,00002.563440,00001.861082,00002.124120,00002.752733,00002.685855,00002.648883,00002.703318,00003.328146,00002.789096,00002.088544,-00000.310838,00000.042672,-00000.369663,00000.074181,-00000.009735,-00000.022602
0000000001264,00002.563667,00001.860968,00002.124007,00002.752335,00002.685315,00002.648914,00002.702896,00003.328089,00002.788925,00002.088507,-00000.310953,00000.042373,-00000.369755,00000.074092,-00000.009752,-00000.022395
0000000001265,00002.564277,00001.861150,00002.123893,00002.752632,00002.685178,00002.649350,00002.702947,00003.328463,00002.789030,00002.088529,-00000.311054,00000.042131,-00000.369839,00000.074034,-00000.009738,-00000.022143
0000000001266,00002.564108,00001.861416,00002.124160,00002.752656,00002.685444,00002.649376,00002.702950,00003.328414,00002.789247,00002.088860,-00000.311152,00000.041877,-00000.370280,00000.073595,-00000.009753,-00000.021967
0000000001267,00002.564265,00001.861208,00002.124426,00002.752183,00002.685690,00002.649385,00002.702993,00003.328370,00002.788974,00002.088878,-00000.311238,00000.041671,-00000.370714,00000.073183,-00000.009742,-00000.022116
0000000001268,00002.564121,00001.861072,00002.123927,00002.752204,00002.685554,00002.649407,00002.702996,00003.327966,00002.789158,00002.088797,-00000.311321,00000.041454,-00000.371089,00000.072810,-00000.009754,-00000.021966
0000000001269,00002.563891,00001.860895,00002.124153,00002.751801,00002.685763,00002.649052,00002.703033,00003.327929,00002.788926,00002.088813,-00000.311394,00000.041279,-00000.371459,00000.072822,-00000.009744,-00000.022092
0000000001270,00002.564131,00001.860779,00002.124092,00002.751456,00002.685284,00002.649071,00002.702672,00003.327947,00002.788357,00002.089106,-00000.311465,00000.041095,-00000.371416,00000.072867,-00000.009755,-00000.022327
0000000001271,00002.564299,00001.860628,00002.124285,00002.751113,00002.685462,00002.649131,00002.702704,00003.328278,00002.788522,00002.089483,-00000.311527,00000.040946,-00000.371367,00000.072877,-00000.009746,-00000.022435
0000000001272,00002.564503,00001.860529,00002.124595,00002.750819,00002.685780,00002.649147,00002.702397,00003.328657,00002.788401,00002.089370,-00000.311588,00000.040789,-00000.371331,00000.072915,-00000.009393,-00000.022635
0000000001273,00002.565009,00001.860401,00002.124759,00002.751253,00002.685932,00002.649561,00002.702423,00003.328938,00002.788541,00002.089327,-00000.311641,00000.040662,-00000.371290,00000.072924,-00000.009385,-00000.022727
0000000001274,00002.565183,00001.860317,00002.125023,00002.751003,00002.685840,00002.649575,00002.702525,00003.329261,00002.788438,00002.089594,-00000.311692,00000.040528,-00000.371258,00000.072957,-00000.009447,-00000.022535
0000000001275,00002.564887,00001.860207,00002.124800,00002.751372,00002.685606,00002.649565,00002.702548,00003.329138,00002.788557,00002.089558,-00000.311737,00000.040420,-00000.371223,00000.072964,-00000.009804,-00000.022250
0000000001276,00002.565035,00001.860136,00002.125025,00002.751522,00002.685528,00002.649576,00002.702271,00003.329412,00002.788470,00002.089422,-00000.311781,00000.040306,-00000.371197,00000.072629,-00000.009856,-00000.022449
0000000001277,00002.564784,00001.860043,00002.125198,00002.751111,00002.685329,00002.649205,00002.702291,00003.329307,00002.788209,00002.089754,-00000.311819,00000.040214,-00000.371167,00000.072273,-00000.009797,-00000.022206
0000000001278,00002.564910,00001.859982,00002.125389,00002.751238,00002.685625,00002.649215,00002.702418,00003.329541,00002.788134,00002.090002,-00000.311857,00000.040117,-00000.371507,00000.071987,-00000.009842,-00000.022376
0000000001279,00002.565059,00001.859903,00002.125536,00002.750888,00002.685818,00002.649261,00002.702435,00003.329814,00002.787911,00002.090284,-00000.311889,00000.040039,-00000.371482,00000.071684,-00000.009791,-00000.022532
