0000000000796,00002.594629,00001.869357,00002.106982,00002.805288,00002.698580,00002.682912,00002.706929,00003.327874,00002.831362,00002.111946,-00000.326911,00000.020699,-00000.354497,00000.070318,-00000.013480,-00000.017294
0000000000797,00002.594678,00001.869376,00002.108068,00002.805673,00002.698540,00002.682958,00002.707081,00003.327855,00002.831757,00002.111941,-00000.327273,00000.020640,-00000.354649,00000.070184,-00000.013578,-00000.017092
0000000000798,00002.594819,00001.868920,00002.109304,00002.805354,00002.698187,00002.682673,00002.706746,00003.327869,00002.831178,00002.111715,-00000.327276,00000.020524,-00000.354751,00000.070020,-00000.013653,-00000.016900
0000000000799,00002.594861,00001.869299,00002.110591,00002.805319,00002.698154,00002.682712,00002.706875,00003.327853,00002.831151,00002.111711,-00000.327221,00000.020473,-00000.354880,00000.070269,-00000.013736,-00000.017090
0000000000800,00002.595344,00001.869637,00002.112006,00002.805047,00002.698578,00002.682469,00002.707316,00003.327864,00002.831022,00002.111882,-00000.327224,00000.020737,-00000.354605,00000.070492,-00000.013799,-00000.016926
0000000000801,00002.595017,00001.869596,00002.112739,00002.804292,00002.698550,00002.681776,00002.707426,00003.327488,00002.830999,00002.111879,-00000.327178,00000.020694,-00000.354352,00000.070704,-00000.013870,-00000.017088
0000000000802,00002.595065,00001.869521,00002.113943,00002.804060,00002.698549,00002.681932,00002.707075,00003.327861,00002.830889,00002.112024,-00000.327180,00000.020556,-00000.354480,00000.070894,-00000.013924,-00000.017312
0000000000803,00002.595150,00001.869124,00002.110939,00002.803780,00002.698162,00002.682068,00002.706806,00003.328266,00002.830869,00002.111658,-00000.327141,00000.020882,-00000.354627,00000.070711,-00000.013984,-00000.017449
0000000000804,00002.594465,00001.869060,00002.107611,00002.803945,00002.697798,00002.681838,00002.706871,00003.328220,00002.830775,00002.111056,-00000.327143,00000.020764,-00000.354737,00000.070510,-00000.014030,-00000.017640
0000000000805,00002.594537,00001.869085,00002.105054,00002.803707,00002.697469,00002.681954,00002.706642,00003.328202,00002.830759,00002.110382,-00000.327109,00000.021042,-00000.354862,00000.070354,-00000.014081,-00000.017757
0000000000806,00002.594680,00001.869030,00002.102946,00002.803485,00002.697522,00002.682121,00002.706334,00003.328526,00002.830679,00002.110233,-00000.327111,00000.020942,-00000.354955,00000.070183,-00000.014121,-00000.017919
0000000000807,00002.594378,00001.869051,00002.101132,00002.802919,00002.697604,00002.681857,00002.706501,00003.328511,00002.830665,00002.109659,-00000.327082,00000.020815,-00000.355062,00000.070051,-00000.014164,-00000.018019
0000000000808,00002.594137,00001.869005,00002.098975,00002.802730,00002.697286,00002.681999,00002.706239,00003.328424,00002.830597,00002.109168,-00000.327084,00000.020730,-00000.355141,00000.069905,-00000.014198,-00000.018157
0000000000809,00002.594243,00001.869023,00002.097068,00002.802611,00002.696994,00002.682137,00002.706019,00003.328774,00002.830585,00002.108680,-00000.327059,00000.020622,-00000.355232,00000.069793,-00000.014235,-00000.018242
0000000000810,00002.594038,00001.868620,00002.096682,00002.802451,00002.696361,00002.681895,00002.705796,00003.328700,00002.830527,00002.108263,-00000.327061,00000.020913,-00000.355299,00000.069669,-00000.014263,-00000.018359
0000000000811,00002.594128,00001.868636,00002.096510,00002.802712,00002.696474,00002.682013,00002.705609,00003.328997,00002.830880,00002.108210,-00000.327040,00000.021184,-00000.355377,00000.069935,-00000.014295,-00000.018432
0000000000812,00002.593591,00001.868656,00002.095457,00002.802575,00002.696298,00002.681444,00002.705782,00003.328572,00002.830830,00002.107854,-00000.327041,00000.021068,-00000.355434,00000.070193,-00000.014319,-00000.018532
0000000000813,00002.593667,00001.868669,00002.094947,00002.802435,00002.696758,00002.681544,00002.705985,00003.328825,00002.830768,00002.107809,-00000.327023,00000.020936,-00000.355500,00000.070057,-00000.014346,-00000.018593
0000000000814,00002.593573,00001.868323,00002.094776,00002.801956,00002.696970,00002.681423,00002.706132,00003.329188,00002.830726,00002.107870,-00000.327024,00000.020838,-00000.355549,00000.070276,-00000.014367,-00000.018678
0000000000815,00002.593275,00001.868334,00002.094705,00002.801837,00002.696636,00002.681145,00002.706305,00003.328678,00002.831035,00002.107468,-00000.327009,00000.021088,-00000.355605,00000.070161,-00000.014389,-00000.018731
0000000000816,00002.593194,00001.868403,00002.094922,00002.801791,00002.696454,00002.681405,00002.706068,00003.328625,00002.830999,00002.107157,-00000.327010,00000.021367,-00000.355647,00000.069984,-00000.014044,-00000.018440
0000000000817,00002.592941,00001.868050,00002.095224,00002.801327,00002.696532,00002.681169,00002.706215,00003.328554,00002.830900,00002.107178,-00000.326997,00000.021217,-00000.355694,00000.069886,-00000.013701,-00000.018122
0000000000818,00002.593235,00001.868108,00002.096134,00002.801289,00002.697103,00002.681027,00002.706376,00003.328508,00002.830870,00002.107276,-00000.326998,00000.021455,-00000.355367,00000.070098,-00000.013770,-00000.018238
0000000000819,00002.593020,00001.868170,00002.094578,00002.801619,00002.697170,00002.681188,00002.706864,00003.328447,00002.831148,00002.107294,-00000.326987,00000.021690,-00000.355407,00000.070015,-00000.013840,-00000.017967
0000000000820,00002.592907,00001.868583,00002.092813,00002.801586,00002.697656,00002.681067,00002.707363,00003.328408,00002.831485,00002.107377,-00000.326988,00000.021892,-00000.355854,00000.069833,-00000.013899,-00000.018065
0000000000821,00002.592724,00001.868273,00002.091488,00002.801142,00002.697350,00002.680842,00002.707053,00003.328720,00002.830996,00002.107030,-00000.326978,00000.021730,-00000.355889,00000.069762,-00000.013959,-00000.017835
0000000000822,00002.592991,00001.868261,00002.089986,00002.801114,00002.697038,00002.681102,00002.706753,00003.329049,00002.830920,00002.107100,-00000.326979,00000.021539,-00000.355907,00000.069607,-00000.014009,-00000.017556
0000000000823,00002.593198,00001.868360,00002.089221,00002.801461,00002.696777,00002.681636,00002.706489,00003.329314,00002.830867,00002.106805,-00000.326971,00000.021401,-00000.355936,00000.069909,-00000.013697,-00000.017360
0000000000824,00002.593062,00001.868350,00002.087942,00002.801800,00002.696512,00002.681857,00002.706596,00003.329232,00002.831165,00002.106502,-00000.326971,00000.021239,-00000.355951,00000.070140,-00000.013377,-00000.017485
0000000000825,00002.593238,00001.868434,00002.088379,00002.801733,00002.697015,00002.681949,00002.706734,00003.329458,00002.831119,00002.106613,-00000.326965,00000.021484,-00000.355613,00000.070760,-00000.013112,-00000.017681
0000000000826,00002.593123,00001.868426,00002.088016,00002.802021,00002.696790,00002.682137,00002.706826,00003.329388,00002.831010,00002.106356,-00000.326965,00000.021709,-00000.355626,00000.071320,-00000.012839,-00000.017787
0000000000827,00002.593272,00001.868497,00002.088388,00002.801964,00002.696856,00002.682215,00002.706580,00003.329580,00002.830972,00002.106450,-00000.326959,00000.021917,-00000.355339,00000.071485,-00000.012613,-00000.017954
0000000000828,00002.593537,00001.868128,00002.087716,00002.801847,00002.696663,00002.682376,00002.706295,00003.329883,00002.830879,00002.106231,-00000.326960,00000.021746,-00000.354987,00000.071236,-00000.012744,-00000.018045
0000000000829,00002.593665,00001.868189,00002.088395,00002.801799,00002.696719,00002.682442,00002.706449,00003.330046,00002.830846,00002.106311,-00000.326955,00000.021923,-00000.355105,00000.071013,-00000.012914,-00000.018186
0000000000830,00002.593527,00001.868236,00002.088549,00002.801336,00002.696918,00002.682216,00002.706569,00003.329942,00002.830767,00002.106125,-00000.326955,00000.021777,-00000.355168,00000.070801,-00000.013026,-00000.018264
0000000000831,00002.593636,00001.868288,00002.087676,00002.801657,00002.696966,00002.682273,00002.706338,00003.330081,00002.830739,00002.106193,-00000.326951,00000.021566,-00000.355631,00000.070612,-00000.013171,-00000.018022
0000000000832,00002.594244,00001.868329,00002.087081,00002.801627,00002.697136,00002.682806,00002.706440,00003.330717,00002.831035,00002.106397,-00000.327314,00000.021441,-00000.355685,00000.070431,-00000.013265,-00000.018087
0000000000833,00002.594336,00001.868373,00002.089966,00002.801537,00002.697539,00002.682854,00002.706968,00003.330473,00002.831374,00002.106455,-00000.327310,00000.021261,-00000.355717,00000.070633,-00000.013026,-00000.018244
0000000000834,00002.594492,00001.868408,00002.093088,00002.801511,00002.697683,00002.682945,00002.706692,00003.330652,00002.831262,00002.106992,-00000.327256,00000.021155,-00000.355762,00000.070479,-00000.013107,-00000.018300
0000000000835,00002.594570,00001.868446,00002.095181,00002.801435,00002.697664,00002.682623,00002.706779,00003.330081,00002.831551,00002.107041,-00000.327253,00000.021002,-00000.355789,00000.070651,-00000.013266,-00000.018434
0000000000836,00002.594703,00001.868838,00002.097838,00002.801775,00002.697787,00002.682700,00002.707270,00003.329871,00002.831819,00002.107135,-00000.327208,00000.020912,-00000.355828,00000.070520,-00000.012972,-00000.018481
0000000000837,00002.594769,00001.868870,00002.099983,00002.801711,00002.697408,00002.682426,00002.707344,00003.330111,00002.831702,00002.107177,-00000.327205,00000.020781,-00000.355851,00000.070666,-00000.012744,-00000.018595
0000000000838,00002.594882,00001.868841,00002.102245,00002.802001,00002.697149,00002.682492,00002.707037,00003.329932,00002.831568,00002.106894,-00000.327166,00000.020705,-00000.355884,00000.070917,-00000.012494,-00000.018635
0000000000839,00002.594576,00001.869231,00002.103708,00002.802308,00002.697189,00002.682259,00002.707462,00003.329773,00002.831831,00002.106930,-00000.327164,00000.020593,-00000.355904,00000.070679,-00000.012663,-00000.018369
0000000000840,00002.594309,00001.869569,00002.105271,00002.802192,00002.697332,00002.681952,00002.707563,00003.329258,00002.831716,00002.106690,-00000.327494,00000.020165,-00000.356295,00000.070530,-00000.012813,-00000.018041
0000000000841,00002.594412,00001.869539,00002.106879,00002.802091,00002.697729,00002.682117,00002.707563,00003.329485,00002.831577,00002.106720,-00000.327492,00000.020071,-00000.356312,00000.070327,-00000.012957,-00000.017815
0000000000842,00002.594547,00001.869827,00002.108573,00002.802355,00002.697851,00002.682218,00002.707649,00003.329409,00002.831843,00002.106515,-00000.327772,00000.020069,-00000.356282,00000.070200,-00000.013084,-00000.017898
0000000000843,00002.594634,00001.869438,00002.109942,00002.802270,00002.697463,00002.682358,00002.707286,00003.329603,00002.831724,00002.106541,-00000.327771,00000.019989,-00000.356296,00000.070391,-00000.012844,-00000.018068
0000000000844,00002.594387,00001.869320,00002.111021,00002.802494,00002.697204,00002.682445,00002.706996,00003.329539,00002.831587,00002.106367,-00000.327647,00000.019987,-00000.356270,00000.070645,-00000.012590,-00000.018139
0000000000845,00002.594824,00001.869352,00002.108558,00002.802421,00002.697237,00002.682564,00002.706687,00003.329704,00002.831487,00002.106389,-00000.327646,00000.019919,-00000.356282,00000.070807,-00000.012386,-00000.018284
0000000000846,00002.594613,00001.869252,00002.105486,00002.802250,00002.697016,00002.682637,00002.706440,00003.329649,00002.831370,00002.106240,-00000.327903,00000.019917,-00000.356261,00000.071024,-00000.012532,-00000.018344
0000000000847,00002.594260,00001.869279,00002.103027,00002.801825,00002.697044,00002.682376,00002.706540,00003.329426,00002.831285,00002.105896,-00000.328264,00000.019859,-00000.356271,00000.071162,-00000.012721,-00000.018467
0000000000848,00002.594080,00001.869193,00002.100411,00002.801679,00002.696856,00002.682076,00002.706693,00003.329017,00002.831548,00002.105770,-00000.328121,00000.019858,-00000.356615,00000.070984,-00000.012845,-00000.018519
0000000000849,00002.594142,00001.869216,00002.098681,00002.801680,00002.696880,00002.682216,00002.706415,00003.329190,00002.831475,00002.105477,-00000.328066,00000.019808,-00000.356987,00000.070738,-00000.013369,-00000.018623
0000000000850,00002.593990,00001.868781,00002.097180,00002.801193,00002.697082,00002.682323,00002.706182,00003.329567,00002.831337,00002.105369,-00000.327943,00000.019808,-00000.357280,00000.070587,-00000.013837,-00000.018667
0000000000851,00002.593679,00001.868800,00002.095344,00002.800831,00002.697103,00002.682080,00002.705946,00003.329715,00002.831275,00002.105483,-00000.327897,00000.019765,-00000.357233,00000.070378,-00000.014283,-00000.018756
0000000000852,00002.593549,00001.868430,00002.093703,00002.800416,00002.696912,00002.681809,00002.705748,00003.329673,00002.831157,00002.105391,-00000.327792,00000.019764,-00000.357483,00000.070249,-00000.014319,-00000.018794
0000000000853,00002.593285,00001.868446,00002.092140,00002.800108,00002.696567,00002.681601,00002.705546,00003.329073,00002.831104,00002.104762,-00000.327753,00000.019728,-00000.357806,00000.070071,-00000.014336,-00000.018870
0000000000854,00002.593175,00001.868131,00002.090744,00002.799392,00002.696768,00002.681733,00002.705377,00003.329400,00002.831004,00002.104684,-00000.327664,00000.019728,-00000.358019,00000.069961,-00000.014367,-00000.018901
0000000000855,00002.592950,00001.867782,00002.089413,00002.798767,00002.696474,00002.681920,00002.705206,00003.329252,00002.830959,00002.104512,-00000.327630,00000.019697,-00000.357931,00000.069809,-00000.014381,-00000.018966
0000000000856,00002.592856,00001.867876,00002.088950,00002.798520,00002.696645,00002.681669,00002.705788,00003.329168,00002.831236,00002.104445,-00000.327555,00000.019697,-00000.358112,00000.069716,-00000.014407,-00000.018993
0000000000857,00002.592302,00001.867942,00002.088542,00002.798351,00002.696757,00002.681465,00002.706005,00003.329042,00002.831198,00002.103936,-00000.327526,00000.019671,-00000.358037,00000.069587,-00000.014419,-00000.019048
0000000000858,00002.592222,00001.867660,00002.088511,00002.797778,00002.696903,00002.680889,00002.705775,00003.328970,00002.830708,00002.103879,-00000.327824,00000.019670,-00000.358191,00000.069507,-00000.014442,-00000.019071
0000000000859,00002.591750,00001.867716,00002.088527,00002.797997,00002.696635,00002.680715,00002.705959,00003.328500,00002.831038,00002.103445,-00000.328163,00000.019648,-00000.358490,00000.069398,-00000.014452,-00000.019118
0000000000860,00002.591319,00001.867838,00002.088137,00002.797872,00002.696759,00002.680587,00002.706126,00003.328439,00002.830985,00002.103397,-00000.328054,00000.019648,-00000.358622,00000.069330,-00000.014471,-00000.019138
0000000000861,00002.591280,00001.867886,00002.087788,00002.798058,00002.696532,00002.680802,00002.706283,00003.328402,00002.830903,00002.103390,-00000.327979,00000.019629,-00000.358876,00000.069236,-00000.014480,-00000.019178
0000000000862,00002.591639,00001.867990,00002.086731,00002.798315,00002.696275,00002.681056,00002.706063,00003.328350,00002.830857,00002.103349,-00000.328249,00000.019628,-00000.358988,00000.069179,-00000.014496,-00000.019194
0000000000863,00002.591243,00001.867668,00002.085345,00002.797748,00002.696081,00002.680513,00002.706196,00003.328318,00002.830787,00002.103344,-00000.328186,00000.019612,-00000.359205,00000.069099,-00000.014140,-00000.019228
0000000000864,00002.590822,00001.867757,00002.085534,00002.797604,00002.696588,00002.680367,00002.706371,00003.328274,00002.830748,00002.103309,-00000.328053,00000.019612,-00000.359300,00000.069050,-00000.014154,-00000.019242
0000000000865,00002.590848,00001.867482,00002.085805,00002.797483,00002.696423,00002.680631,00002.706122,00003.328247,00002.830689,00002.103304,-00000.327999,00000.019598,-00000.359484,00000.068982,-00000.013852,-00000.019271
0000000000866,00002.590853,00001.867558,00002.085603,00002.797723,00002.696129,00002.680869,00002.706271,00003.328209,00002.831019,00002.103274,-00000.328248,00000.019598,-00000.359565,00000.068941,-00000.013863,-00000.019283
0000000000867,00002.590875,00001.867687,00002.084746,00002.797621,00002.696351,00002.681093,00002.706785,00003.328549,00002.831331,00002.103270,-00000.328565,00000.019586,-00000.359722,00000.069246,-00000.013606,-00000.019308
0000000000868,00002.591242,00001.868114,00002.084210,00002.797463,00002.696826,00002.680933,00002.707275,00003.328517,00002.831249,00002.103245,-00000.328778,00000.019586,-00000.359428,00000.069573,-00000.013253,-00000.019318
0000000000869,00002.591261,00001.868224,00002.083481,00002.797376,00002.697015,00002.680761,00002.707349,00003.328443,00002.831152,00002.103242,-00000.329047,00000.019213,-00000.359562,00000.069833,-00000.012671,-00000.019339
0000000000870,00002.591211,00001.868225,00002.082662,00002.796878,00002.696694,00002.680262,00002.707040,00003.328053,00002.831082,00002.103220,-00000.329228,00000.019213,-00000.359675,00000.070111,-00000.012371,-00000.019348
0000000000871,00002.591227,00001.867956,00002.081678,00002.796804,00002.696855,00002.679753,00002.707104,00003.327991,00002.831000,00002.103217,-00000.329458,00000.018896,-00000.359789,00000.070332,-00000.012238,-00000.019366
0000000000872,00002.591547,00001.867957,00002.081344,00002.796743,00002.696945,00002.680054,00002.706841,00003.328384,00002.830940,00002.103199,-00000.329612,00000.018533,-00000.360247,00000.070207,-00000.011982,-00000.019373
0000000000873,00002.591197,00001.868090,00002.080507,00002.796317,00002.696719,00002.679621,00002.706532,00003.327968,00002.830870,00002.102833,-00000.329807,00000.018263,-00000.360344,00000.070032,-00000.011869,-00000.019388
0000000000874,00002.591470,00001.868091,00002.079860,00002.796628,00002.696433,00002.679877,00002.706308,00003.328303,00002.830819,00002.102818,-00000.329939,00000.017954,-00000.360372,00000.069925,-00000.012015,-00000.019395
0000000000875,00002.592261,00001.868205,00002.079510,00002.796991,00002.696241,00002.680233,00002.706045,00003.328674,00002.830759,00002.103232,-00000.330105,00000.018087,-00000.360454,00000.070139,-00000.011918,-00000.019408
0000000000876,00002.592493,00001.867842,00002.078959,00002.796893,00002.696359,00002.680451,00002.705855,00003.328960,00002.830353,00002.103219,-00000.330216,00000.017824,-00000.360478,00000.070411,-00000.011679,-00000.019413
0000000000877,00002.592803,00001.867939,00002.079023,00002.797202,00002.696559,00002.680755,00002.705631,00003.329276,00002.830302,00002.103209,-00000.330358,00000.017937,-00000.360548,00000.070593,-00000.011597,-00000.019424
0000000000878,00002.593001,00001.867994,00002.078554,00002.797481,00002.696660,00002.681303,00002.705832,00003.329518,00002.830682,00002.103198,-00000.330453,00000.017713,-00000.360568,00000.070825,-00000.011031,-00000.019429
0000000000879,00002.593265,00001.868076,00002.078247,00002.797382,00002.696829,00002.681562,00002.705641,00003.329788,00002.830639,00002.103552,-00000.330574,00000.017809,-00000.360628,00000.070980,-00000.010961,-00000.019438
0000000000880,00002.593070,00001.867760,00002.077847,00002.796894,00002.696915,00002.681303,00002.705812,00003.329994,00002.830600,00002.103543,-00000.330655,00000.017618,-00000.360282,00000.071177,-00000.010842,-00000.019442
0000000000881,00002.592570,00001.867830,00002.077222,00002.796809,00002.696697,00002.681160,00002.705650,00003.329498,00002.830563,00002.103482,-00000.330757,00000.017700,-00000.360333,00000.071309,-00000.010782,-00000.019450
0000000000882,00002.592404,00001.867560,00002.076883,00002.796756,00002.696408,00002.681303,00002.705432,00003.329674,00002.830529,00002.103474,-00000.330826,00000.017538,-00000.360402,00000.071477,-00000.010681,-00000.019453
0000000000883,00002.592704,00001.867983,00002.076714,00002.797047,00002.696584,00002.681544,00002.706020,00003.329614,00002.830861,00002.103422,-00000.330913,00000.017245,-00000.360445,00000.071589,-00000.010630,-00000.019097
0000000000884,00002.592925,00001.868116,00002.076424,00002.797002,00002.696338,00002.681665,00002.705835,00003.329764,00002.830832,00002.103777,-00000.330972,00000.017107,-00000.360503,00000.072095,-00000.010181,-00000.019100
0000000000885,00002.592455,00001.868113,00002.075917,00002.796887,00002.696489,00002.681508,00002.705972,00003.329713,00002.830752,00002.103733,-00000.331046,00000.017220,-00000.360540,00000.072190,-00000.010138,-00000.019160
0000000000886,00002.592644,00001.868227,00002.077848,00002.797574,00002.696642,00002.681611,00002.706177,00003.329477,00002.830727,00002.103673,-00000.331096,00000.017103,-00000.360590,00000.072258,-00000.010118,-00000.019162
0000000000887,00002.592969,00001.868224,00002.077779,00002.797839,00002.696407,00002.681840,00002.705931,00003.329434,00002.830659,00002.103636,-00000.331160,00000.016836,-00000.360258,00000.072702,-00000.010082,-00000.019213
0000000000888,00002.592766,00001.868684,00002.077246,00002.797699,00002.696537,00002.681928,00002.706106,00003.329234,00002.831001,00002.103585,-00000.331202,00000.017099,-00000.360301,00000.073123,-00000.009702,-00000.019215
0000000000889,00002.592317,00001.868682,00002.076825,00002.797924,00002.696337,00002.681760,00002.706260,00003.328834,00002.831305,00002.103552,-00000.331256,00000.017235,-00000.360019,00000.073501,-00000.009308,-00000.019621
0000000000890,00002.592145,00001.868347,00002.076371,00002.797804,00002.696448,00002.681835,00002.706408,00003.329026,00002.831234,00002.103872,-00000.331292,00000.017096,-00000.360055,00000.073859,-00000.008985,-00000.019623
0000000000891,00002.591763,00001.868345,00002.076012,00002.797633,00002.696278,00002.681329,00002.706539,00003.328686,00002.831493,00002.103845,-00000.331338,00000.016849,-00000.360177,00000.073818,-00000.009012,-00000.019606
0000000000892,00002.591979,00001.868060,00002.075626,00002.797532,00002.696010,00002.681392,00002.706666,00003.328850,00002.831795,00002.103754,-00000.331369,00000.016731,-00000.360208,00000.073397,-00000.009463,-00000.019607
0000000000893,00002.591654,00001.868059,00002.075320,00002.797386,00002.695865,00002.681325,00002.706777,00003.328560,00002.832015,00002.103730,-00000.331408,00000.016520,-00000.360312,00000.072999,-00000.009849,-00000.019593
0000000000894,00002.591475,00001.868179,00002.074629,00002.797299,00002.695637,00002.681016,00002.706885,00003.328337,00002.832272,00002.103653,-00000.331434,00000.016420,-00000.360338,00000.072641,-00000.010232,-00000.019594
0000000000895,00002.591561,00001.868178,00002.074731,00002.796450,00002.695876,00002.681321,00002.706616,00003.328453,00002.831734,00002.103633,-00000.331467,00000.016241,-00000.360427,00000.072303,-00000.010561,-00000.019945
0000000000896,00002.591046,00001.868280,00002.074143,00002.796013,00002.695682,00002.681058,00002.706345,00003.328263,00002.831590,00002.103567,-00000.331490,00000.016155,-00000.360449,00000.072360,-00000.010888,-00000.020308
0000000000897,00002.590757,00001.868279,00002.074230,00002.795653,00002.696248,00002.680955,00002.706843,00003.328361,00002.831858,00002.103913,-00000.331518,00000.016002,-00000.360525,00000.072435,-00000.010805,-00000.020244
0000000000898,00002.590318,00001.868367,00002.073729,00002.795281,00002.696083,00002.680732,00002.706975,00003.327837,00002.832098,00002.103857,-00000.331537,00000.015929,-00000.360544,00000.072484,-00000.010720,-00000.020191
0000000000899,00002.590435,00001.868003,00002.073803,00002.794612,00002.696203,00002.681007,00002.706673,00003.327921,00002.831601,00002.103789,-00000.331561,00000.015800,-00000.360608,00000.072185,-00000.010649,-00000.020136
0000000000900,00002.589699,00001.868077,00002.073377,00002.794295,00002.696062,00002.680454,00002.706785,00003.327474,00002.831442,00002.103741,-00000.331940,00000.015737,-00000.360624,00000.071864,-00000.010577,-00000.020091
0000000000901,00002.589435,00001.868130,00002.073077,00002.794451,00002.696163,00002.680688,00002.706891,00003.327546,00002.831744,00002.103683,-00000.331961,00000.015627,-00000.360679,00000.071609,-00000.010880,-00000.020044
0000000000902,00002.589171,00001.868193,00002.072714,00002.794182,00002.696406,00002.680580,00002.706986,00003.327166,00002.831972,00002.103642,-00000.332283,00000.015574,-00000.360693,00000.071336,-00000.011181,-00000.020006
0000000000903,00002.588946,00001.868239,00002.072459,00002.793951,00002.696493,00002.680053,00002.707076,00003.327227,00002.832229,00002.103956,-00000.332301,00000.015480,-00000.360740,00000.071119,-00000.011439,-00000.019966
0000000000904,00002.588722,00001.868292,00002.072513,00002.794085,00002.696700,00002.679961,00002.707158,00003.326903,00002.832423,00002.103921,-00000.332213,00000.015798,-00000.360751,00000.070886,-00000.011695,-00000.019933
0000000000905,00002.588531,00001.868331,00002.072658,00002.794251,00002.696774,00002.679876,00002.707234,00003.327318,00002.832279,00002.104188,-00000.332227,00000.015718,-00000.360791,00000.070702,-00000.011914,-00000.019899
0000000000906,00002.588339,00001.868377,00002.072704,00002.794728,00002.696949,00002.680161,00002.707304,00003.327042,00002.832445,00002.104158,-00000.332152,00000.015988,-00000.360801,00000.070504,-00000.012133,-00000.019871
0000000000907,00002.588177,00001.868410,00002.072465,00002.794870,00002.697012,00002.680088,00002.707369,00003.326670,00002.832685,00002.104023,-00000.332165,00000.015920,-00000.360835,00000.070710,-00000.012320,-00000.019843
0000000000908,00002.588377,00001.868086,00002.072504,00002.795275,00002.696799,00002.680330,00002.707065,00003.326798,00002.832826,00002.104360,-00000.332101,00000.015787,-00000.360843,00000.070904,-00000.012505,-00000.019819
0000000000909,00002.588601,00001.867751,00002.072664,00002.795396,00002.696853,00002.680268,00002.706758,00003.326843,00002.832667,00002.104608,-00000.332112,00000.015729,-00000.360872,00000.071079,-00000.012664,-00000.019794
0000000000910,00002.588408,00001.867838,00002.072697,00002.795741,00002.696671,00002.680475,00002.706862,00003.326590,00002.833150,00002.104895,-00000.332058,00000.015617,-00000.360879,00000.071244,-00000.012823,-00000.019774
0000000000911,00002.588599,00001.867553,00002.072833,00002.795844,00002.696717,00002.680422,00002.706600,00003.326629,00002.833015,00002.105468,-00000.332430,00000.015567,-00000.360904,00000.071393,-00000.012958,-00000.019753
0000000000912,00002.588435,00001.867627,00002.072861,00002.796138,00002.696925,00002.680235,00002.706689,00003.326413,00002.833426,00002.106076,-00000.332746,00000.015471,-00000.360910,00000.071534,-00000.013093,-00000.019736
0000000000913,00002.588235,00001.867384,00002.072977,00002.795863,00002.696964,00002.680190,00002.706466,00003.326446,00002.833311,00002.106564,-00000.332700,00000.015429,-00000.360931,00000.071661,-00000.013208,-00000.019356
0000000000914,00002.588096,00001.867448,00002.072638,00002.795750,00002.696779,00002.679668,00002.706542,00003.326262,00002.833298,00002.107081,-00000.332607,00000.015710,-00000.360936,00000.071781,-00000.013323,-00000.019341
0000000000915,00002.588288,00001.867241,00002.072736,00002.795879,00002.696449,00002.679992,00002.706352,00003.326290,00002.833563,00002.107497,-00000.332567,00000.016037,-00000.360954,00000.071889,-00000.013421,-00000.019380
0000000000916,00002.588169,00001.867295,00002.072810,00002.796146,00002.696654,00002.679911,00002.706416,00003.326134,00002.834278,00002.107937,-00000.332488,00000.016276,-00000.360958,00000.071628,-00000.013881,-00000.019367
0000000000917,00002.587607,00001.867482,00002.072531,00002.796255,00002.696736,00002.679824,00002.706618,00003.325795,00002.834866,00002.107928,-00000.332454,00000.016192,-00000.360973,00000.071357,-00000.013964,-00000.019400
0000000000918,00002.587869,00001.867165,00002.072595,00002.796483,00002.696911,00002.680117,00002.706310,00003.326024,00002.834749,00002.108303,-00000.332387,00000.016033,-00000.360977,00000.071135,-00000.013994,-00000.019390
0000000000919,00002.588116,00001.867324,00002.072720,00002.797301,00002.696980,00002.680407,00002.706118,00003.326099,00002.835250,00002.109020,-00000.332358,00000.015961,-00000.360990,00000.070904,-00000.014065,-00000.019418
0000000000920,00002.588339,00001.867417,00002.075676,00002.797857,00002.696766,00002.680656,00002.705856,00003.326294,00002.835513,00002.109339,-00000.332301,00000.015826,-00000.360993,00000.070715,-00000.014090,-00000.019409
0000000000921,00002.588187,00001.867189,00002.076871,00002.798192,00002.696100,00002.680902,00002.705693,00003.326357,00002.835939,00002.109588,-00000.332276,00000.015764,-00000.361004,00000.070519,-00000.014150,-00000.019433
0000000000922,00002.588376,00001.867268,00002.079025,00002.798302,00002.696281,00002.680752,00002.705833,00003.326161,00002.836163,00002.109859,-00000.332227,00000.015649,-00000.361007,00000.070358,-00000.014534,-00000.019425
0000000000923,00002.588609,00001.867438,00002.080043,00002.798587,00002.696076,00002.680962,00002.705694,00003.326215,00002.836889,00002.110071,-00000.332207,00000.015597,-00000.361016,00000.070191,-00000.014948,-00000.019445
0000000000924,00002.588771,00001.867142,00002.079337,00002.798681,00002.696230,00002.681196,00002.705813,00003.326773,00002.837079,00002.110665,-00000.332528,00000.015499,-00000.361381,00000.070054,-00000.014912,-00000.019439
0000000000925,00002.589332,00001.867286,00002.079114,00002.798923,00002.696056,00002.681375,00002.705695,00003.326819,00002.837334,00002.110845,-00000.332510,00000.015454,-00000.361752,00000.069549,-00000.014902,-00000.019456
0000000000926,00002.589470,00001.867398,00002.078513,00002.799729,00002.696187,00002.681575,00002.705796,00003.326932,00002.838222,00002.110988,-00000.332784,00000.015371,-00000.362063,00000.069070,-00000.014872,-00000.019451
0000000000927,00002.589585,00001.867883,00002.078687,00002.800298,00002.696764,00002.681727,00002.706421,00003.326971,00002.839165,00002.111141,-00000.332769,00000.015333,-00000.362378,00000.068640,-00000.014863,-00000.019465
0000000000928,00002.590064,00001.867615,00002.079263,00002.800621,00002.696513,00002.682260,00002.706507,00003.327067,00002.839921,00002.111625,-00000.332639,00000.015262,-00000.362643,00000.068232,-00000.015200,-00000.019098
0000000000929,00002.590525,00001.867665,00002.081225,00002.800743,00002.696279,00002.682752,00002.706313,00003.327100,00002.840361,00002.112119,-00000.332989,00000.015230,-00000.362912,00000.067866,-00000.015555,-00000.019110
0000000000930,00002.590934,00001.867800,00002.080628,00002.800655,00002.696428,00002.682843,00002.706387,00003.326819,00002.841004,00002.112168,-00000.332878,00000.015169,-00000.363137,00000.067518,-00000.015842,-00000.019160
0000000000931,00002.591326,00001.867480,00002.080121,00002.801122,00002.696228,00002.683262,00002.706222,00003.326847,00002.841378,00002.112225,-00000.332813,00000.015142,-00000.363003,00000.067207,-00000.015782,-00000.019171
0000000000932,00002.591673,00001.867595,00002.079612,00002.801773,00002.696355,00002.684065,00002.706284,00003.327333,00002.841926,00002.112630,-00000.332719,00000.015090,-00000.363195,00000.067274,-00000.015663,-00000.019214
0000000000933,00002.592007,00001.867323,00002.079181,00002.801807,00002.696548,00002.684421,00002.706507,00003.327720,00002.842245,00002.113404,-00000.333026,00000.015067,-00000.363443,00000.067008,-00000.015612,-00000.019223
0000000000934,00002.591941,00001.867057,00002.078385,00002.801998,00002.696293,00002.684742,00002.706560,00003.327771,00002.842711,00002.113386,-00000.332946,00000.015023,-00000.363606,00000.066703,-00000.015511,-00000.019259
0000000000935,00002.591499,00001.867188,00002.077655,00002.802027,00002.696095,00002.684320,00002.706750,00003.327012,00002.842982,00002.113320,-00000.333208,00000.015003,-00000.364181,00000.066114,-00000.015830,-00000.019267
0000000000936,00002.591442,00001.867325,00002.076978,00002.801827,00002.695878,00002.684230,00002.706432,00003.326693,00002.843017,00002.112942,-00000.333502,00000.014966,-00000.364320,00000.065491,-00000.016107,-00000.019297
0000000000937,00002.591067,00001.867437,00002.076356,00002.802215,00002.695709,00002.684234,00002.706593,00003.326409,00002.843610,00002.112885,-00000.333363,00000.014949,-00000.364446,00000.064990,-00000.016378,-00000.019304
0000000000938,00002.591381,00001.867553,00002.076505,00002.802408,00002.695887,00002.684520,00002.706686,00003.326500,00002.843639,00002.113289,-00000.333250,00000.014917,-00000.364927,00000.064460,-00000.016614,-00000.019330
0000000000939,00002.591424,00001.867648,00002.076339,00002.802375,00002.696106,00002.684523,00002.706823,00003.326259,00002.843782,00002.113241,-00000.333131,00000.014903,-00000.365035,00000.064396,-00000.016482,-00000.019336
0000000000940,00002.591329,00001.867748,00002.076103,00002.802176,00002.696258,00002.684405,00002.706902,00003.325974,00002.843807,00002.113221,-00000.333399,00000.014876,-00000.365082,00000.064307,-00000.016320,-00000.019358
0000000000941,00002.591728,00001.867828,00002.075961,00002.802148,00002.696444,00002.684407,00002.706656,00003.325768,00002.843928,00002.113180,-00000.333660,00000.014864,-00000.365173,00000.064616,-00000.016208,-00000.019363
0000000000942,00002.591647,00001.867913,00002.075398,00002.802341,00002.696573,00002.684306,00002.706723,00003.325525,00002.844312,00002.113164,-00000.333525,00000.014841,-00000.365213,00000.064540,-00000.016433,-00000.019382
0000000000943,00002.591261,00001.867982,00002.075277,00002.802680,00002.696369,00002.684671,00002.706876,00003.325713,00002.844778,00002.113129,-00000.333748,00000.014830,-00000.365291,00000.064440,-00000.016700,-00000.019386
0000000000944,00002.591193,00001.868054,00002.075160,00002.802482,00002.696842,00002.684585,00002.706933,00003.325869,00002.844742,00002.113478,-00000.333632,00000.014811,-00000.365325,00000.064013,-00000.016892,-00000.019402
0000000000945,00002.591227,00001.868112,00002.074695,00002.802771,00002.696668,00002.684533,00002.707064,00003.325667,00002.845139,00002.113448,-00000.333459,00000.014802,-00000.365391,00000.063565,-00000.017119,-00000.019406
0000000000946,00002.591168,00001.868174,00002.074232,00002.802965,00002.696345,00002.684822,00002.707113,00003.325437,00002.845109,00002.113383,-00000.333361,00000.014785,-00000.365057,00000.063201,-00000.017282,-00000.019419
0000000000947,00002.591198,00001.868223,00002.074199,00002.802848,00002.696923,00002.684778,00002.707224,00003.325627,00002.845084,00002.113720,-00000.333214,00000.015140,-00000.364751,00000.063182,-00000.017476,-00000.019422
0000000000948,00002.591148,00001.867913,00002.074168,00002.802651,00002.697010,00002.684661,00002.706902,00003.325794,00002.845057,00002.113664,-00000.333130,00000.015126,-00000.364829,00000.063236,-00000.017252,-00000.019434
0000000000949,00002.590810,00001.867955,00002.074139,00002.802914,00002.697139,00002.684623,00002.706997,00003.325593,00002.845399,00002.113589,-00000.333005,00000.015066,-00000.364568,00000.063220,-00000.017054,-00000.019437
0000000000950,00002.590405,00001.868054,00002.073750,00002.802746,00002.697214,00002.684162,00002.707086,00003.325372,00002.845377,00002.113541,-00000.332934,00000.015054,-00000.364635,00000.063265,-00000.017226,-00000.019447
0000000000951,00002.590843,00001.867727,00002.073726,00002.802607,00002.697324,00002.684129,00002.706804,00003.325564,00002.845305,00002.113840,-00000.333189,00000.015002,-00000.364413,00000.063252,-00000.017058,-00000.019449
0000000000952,00002.590860,00001.867811,00002.075209,00002.802464,00002.697387,00002.684099,00002.706517,00003.325739,00002.845286,00002.114162,-00000.333129,00000.015355,-00000.364107,00000.063653,-00000.016841,-00000.019457
0000000000953,00002.591233,00001.867895,00002.075188,00002.802708,00002.697481,00002.684434,00002.706640,00003.325902,00002.845587,00002.114053,-00000.332984,00000.015674,-00000.363918,00000.064004,-00000.016698,-00000.019459
0000000000954,00002.591248,00001.867967,00002.074999,00002.802949,00002.697172,00002.684771,00002.706758,00003.326051,00002.845934,00002.113965,-00000.332933,00000.015974,-00000.363658,00000.064346,-00000.016514,-00000.019466
0000000000955,00002.591203,00001.868039,00002.074982,00002.803520,00002.697252,00002.685057,00002.706863,00003.326190,00002.846191,00002.113872,-00000.332809,00000.015883,-00000.363497,00000.064645,-00000.016392,-00000.019468
0000000000956,00002.591216,00001.868099,00002.076272,00002.803363,00002.697714,00002.685344,00002.706963,00003.326680,00002.846123,00002.113797,-00000.332765,00000.015775,-00000.363275,00000.064573,-00000.015872,-00000.019474
0000000000957,00002.591177,00001.868161,00002.077346,00002.803123,00002.697782,00002.685224,00002.707052,00003.326798,00002.845979,00002.114081,-00000.332660,00000.016060,-00000.363138,00000.064465,-00000.015768,-00000.019475
0000000000958,00002.591188,00001.868212,00002.079170,00002.803352,00002.697813,00002.685105,00002.706775,00003.326489,00002.846284,00002.114017,-00000.332623,00000.016332,-00000.362950,00000.064404,-00000.015689,-00000.019481
0000000000959,00002.591518,00001.867902,00002.079721,00002.803148,00002.697871,00002.685003,00002.706488,00003.326953,00002.846161,00002.114259,-00000.332534,00000.016575,-00000.362833,00000.064674,-00000.015600,-00000.019482
0000000000960,00002.591890,00001.867583,00002.080548,00002.802980,00002.697897,00002.684902,00002.706252,00003.327053,00002.845695,00002.114567,-00000.332502,00000.016806,-00000.362672,00000.064985,-00000.015533,-00000.019486
0000000000961,00002.591808,00001.867681,00002.081017,00002.802806,00002.697584,00002.684816,00002.706371,00003.326722,00002.845591,00002.114410,-00000.332426,00000.017012,-00000.362573,00000.065216,-00000.015457,-00000.019487
0000000000962,00002.592125,00001.867773,00002.081358,00002.803026,00002.697969,00002.685093,00002.706533,00003.327170,00002.845557,00002.114672,-00000.332399,00000.016846,-00000.362436,00000.065480,-00000.015400,-00000.019491
0000000000963,00002.592055,00001.867857,00002.082121,00002.803241,00002.698065,00002.685019,00002.706996,00003.326888,00002.845831,00002.114901,-00000.332334,00000.016659,-00000.362352,00000.065676,-00000.014973,-00000.019492
0000000000964,00002.591962,00001.867934,00002.081686,00002.803428,00002.698030,00002.684892,00002.707497,00003.326544,00002.846165,00002.115125,-00000.332311,00000.016518,-00000.362235,00000.065901,-00000.014561,-00000.019495
0000000000965,00002.592266,00001.868006,00002.083060,00002.803611,00002.698474,00002.685191,00002.707892,00003.326666,00002.846398,00002.115320,-00000.332256,00000.016359,-00000.362164,00000.066068,-00000.014560,-00000.019496
0000000000966,00002.592186,00001.868072,00002.085955,00002.803770,00002.698445,00002.685083,00002.707955,00003.326373,00002.846682,00002.115147,-00000.332236,00000.016601,-00000.362064,00000.066260,-00000.014210,-00000.019498
0000000000967,00002.592082,00001.868133,00002.089302,00002.804289,00002.698823,00002.684976,00002.707929,00003.326478,00002.846881,00002.115313,-00000.331826,00000.016829,-00000.362003,00000.066402,-00000.013846,-00000.019499
0000000000968,00002.592014,00001.868189,00002.090315,00002.805150,00002.698798,00002.685246,00002.707983,00003.326228,00002.847486,00002.115166,-00000.331810,00000.016672,-00000.361919,00000.066565,-00000.013911,-00000.019501
0000000000969,00002.591925,00001.868604,00002.093164,00002.805954,00002.698757,00002.685518,00002.708323,00003.326318,00002.847655,00002.115308,-00000.331824,00000.016866,-00000.361867,00000.066686,-00000.013964,-00000.019502
0000000000970,00002.592231,00001.868652,00002.095478,00002.807050,00002.698736,00002.686111,00002.708369,00003.326105,00002.847807,00002.115545,-00000.331809,00000.017095,-00000.361795,00000.066825,-00000.014019,-00000.019504
0000000000971,00002.592518,00001.868642,00002.097903,00002.807734,00002.698701,00002.686342,00002.707932,00003.326544,00002.847588,00002.115666,-00000.331458,00000.017260,-00000.361750,00000.066566,-00000.014064,-00000.019504
0000000000972,00002.592415,00001.868683,00002.099873,00002.809030,00002.698683,00002.686484,00002.707972,00003.326363,00002.847717,00002.115868,-00000.331084,00000.017456,-00000.361689,00000.066684,-00000.014111,-00000.019506
0000000000973,00002.592659,00001.869037,00002.101938,00002.809976,00002.699016,00002.686681,00002.708326,00003.326373,00002.847894,00002.115971,-00000.330785,00000.017596,-00000.361289,00000.066825,-00000.013787,-00000.019506
0000000000974,00002.592572,00001.869072,00002.103614,00002.810353,00002.699000,00002.686802,00002.708359,00003.326582,00002.848004,00002.116143,-00000.330466,00000.017762,-00000.360874,00000.067289,-00000.013464,-00000.019508
0000000000975,00002.592417,00001.869010,00002.105009,00002.810433,00002.698558,00002.687332,00002.707935,00003.326591,00002.848154,00002.115867,-00000.330211,00000.017882,-00000.360533,00000.067772,-00000.013188,-00000.019508
0000000000976,00002.592705,00001.869040,00002.106800,00002.809666,00002.698908,00002.687435,00002.707964,00003.326769,00002.847885,00002.116014,-00000.329940,00000.018023,-00000.360542,00000.068167,-00000.012913,-00000.019509
0000000000977,00002.592574,00001.868988,00002.104359,00002.809370,00002.698532,00002.687524,00002.707603,00003.326777,00002.847650,00002.115779,-00000.329723,00000.018125,-00000.360615,00000.068216,-00000.013041,-00000.019510
0000000000978,00002.592456,00001.869013,00002.102255,00002.808717,00002.698829,00002.687248,00002.707627,00003.326928,00002.847421,00002.116267,-00000.329492,00000.018246,-00000.360623,00000.067826,-00000.013170,-00000.019511
0000000000979,00002.592344,00001.868969,00002.100178,00002.808466,00002.698509,00002.687324,00002.707682,00003.326935,00002.847584,00002.116067,-00000.329308,00000.018332,-00000.360685,00000.067505,-00000.013279,-00000.019511
0000000000980,00002.591881,00001.868628,00002.098024,00002.808273,00002.698037,00002.687452,00002.707340,00003.327064,00002.847389,00002.115757,-00000.329111,00000.018435,-00000.360692,00000.067536,-00000.013388,-00000.019512
0000000000981,00002.591060,00001.868590,00002.096255,00002.808059,00002.698127,00002.687154,00002.707387,00003.327069,00002.847528,00002.115587,-00000.328954,00000.018509,-00000.360744,00000.067625,-00000.013481,-00000.019512
0000000000982,00002.591029,00001.868662,00002.094422,00002.807895,00002.698088,00002.687263,00002.707096,00003.327179,00002.847362,00002.115322,-00000.328786,00000.018596,-00000.360388,00000.067651,-00000.013211,-00000.019513
0000000000983,00002.590693,00001.868267,00002.092916,00002.806987,00002.698165,00002.687009,00002.706773,00003.327184,00002.847117,00002.115540,-00000.328653,00000.018659,-00000.360069,00000.067727,-00000.012927,-00000.019513
0000000000984,00002.589941,00001.868329,00002.092807,00002.806484,00002.698131,00002.686377,00002.706888,00003.326914,00002.846976,00002.115315,-00000.328510,00000.018733,-00000.360128,00000.067750,-00000.012698,-00000.019513
0000000000985,00002.589655,00001.867992,00002.091888,00002.806437,00002.698197,00002.686523,00002.706976,00003.327281,00002.846767,00002.115138,-00000.328396,00000.018786,-00000.359858,00000.067814,-00000.012456,-00000.019514
0000000000986,00002.589740,00001.867682,00002.090343,00002.806372,00002.697805,00002.686710,00002.706711,00003.327414,00002.846647,00002.114947,-00000.328275,00000.018850,-00000.359545,00000.068196,-00000.012261,-00000.019514
0000000000987,00002.589496,00001.867759,00002.090649,00002.806332,00002.697498,00002.686472,00002.706424,00003.326638,00002.846470,00002.114433,-00000.328178,00000.018895,-00000.359315,00000.068614,-00000.012055,-00000.019514
0000000000988,00002.589206,00001.868220,00002.090423,00002.806276,00002.697528,00002.686632,00002.706924,00003.326389,00002.847093,00002.114270,-00000.328075,00000.018949,-00000.359049,00000.068577,-00000.011889,-00000.019515
0000000000989,00002.588999,00001.868285,00002.091046,00002.806242,00002.697266,00002.686792,00002.706679,00003.326091,00002.846942,00002.114196,-00000.327992,00000.018988,-00000.358852,00000.068569,-00000.011714,-00000.019515
0000000000990,00002.588752,00001.868315,00002.093755,00002.805832,00002.697292,00002.686565,00002.706741,00003.325879,00002.846747,00002.114057,-00000.327904,00000.019397,-00000.358263,00000.068900,-00000.011572,-00000.019515
0000000000991,00002.589301,00001.868371,00002.096463,00002.805803,00002.697432,00002.687064,00002.706896,00003.325988,00002.846618,00002.114356,-00000.327471,00000.019792,-00000.357733,00000.069620,-00000.011060,-00000.019515
0000000000992,00002.589090,00001.868396,00002.098407,00002.806542,00002.697091,00002.687233,00002.706586,00003.325808,00002.846452,00002.113875,-00000.327396,00000.020140,-00000.357232,00000.070264,-00000.010577,-00000.019516
0000000000993,00002.588832,00001.868443,00002.100712,00002.806881,00002.697573,00002.686932,00002.706718,00003.325538,00002.846705,00002.113767,-00000.327390,00000.020477,-00000.356780,00000.070514,-00000.010141,-00000.019516
0000000000994,00002.588290,00001.868465,00002.102004,00002.807147,00002.697645,00002.686714,00002.706454,00003.325021,00002.846927,00002.113721,-00000.327327,00000.020773,-00000.356353,00000.070700,-00000.010093,-00000.019516
0000000000995,00002.588071,00001.868142,00002.103966,00002.807072,00002.698056,00002.686821,00002.706566,00003.325154,00002.846780,00002.113629,-00000.327322,00000.021060,-00000.355969,00000.070912,-00000.010084,-00000.019516
0000000000996,00002.588335,00001.868524,00002.105791,00002.807299,00002.698480,00002.686997,00002.707068,00003.325077,00002.847331,00002.113589,-00000.327267,00000.021312,-00000.355243,00000.071433,-00000.009680,-00000.019154
0000000000997,00002.588511,00001.868249,00002.107461,00002.807961,00002.698467,00002.687088,00002.706800,00003.325191,00002.847206,00002.113874,-00000.327263,00000.021556,-00000.354916,00000.071977,-00000.009310,-00000.018791
0000000000998,00002.588373,00001.868211,00002.109015,00002.807791,00002.698828,00002.687239,00002.706864,00003.325488,00002.847312,00002.113840,-00000.326854,00000.021771,-00000.354661,00000.072420,-00000.008966,-00000.018482
0000000000999,00002.587797,00001.867977,00002.110437,00002.807266,00002.698816,00002.686953,00002.706999,00003.325222,00002.847568,00002.113357,-00000.326851,00000.021979,-00000.354382,00000.072883,-00000.008652,-00000.018536
0000000001000,00002.587680,00001.867582,00002.111760,00002.807122,00002.698761,00002.687081,00002.706691,00003.325112,00002.846934,00002.112965,-00000.326503,00000.022524,-00000.353802,00000.073261,-00000.008359,-00000.018636
0000000001001,00002.587189,00001.867745,00002.112608,00002.807400,00002.698389,00002.687201,00002.706806,00003.324522,00002.846789,00002.112554,-00000.326137,00000.023064,-00000.353202,00000.073655,-00000.008091,-00000.018319
0000000001002,00002.587089,00001.868134,00002.113734,00002.808003,00002.698342,00002.687310,00002.706906,00003.324429,00002.846974,00002.112583,-00000.325840,00000.023529,-00000.352708,00000.073976,-00000.007841,-00000.018405
0000000001003,00002.587035,00001.868274,00002.114819,00002.807877,00002.698387,00002.687049,00002.706641,00003.324290,00002.846488,00002.112596,-00000.325529,00000.023988,-00000.352198,00000.074312,-00000.007613,-00000.018135
0000000001004,00002.586587,00001.868242,00002.115415,00002.808390,00002.697984,00002.687142,00002.706727,00003.324210,00002.846283,00002.112621,-00000.325276,00000.024383,-00000.351777,00000.074585,-00000.007401,-00000.018207
0000000001005,00002.586540,00001.868361,00002.116338,00002.809009,00002.698023,00002.687283,00002.706864,00003.324818,00002.846232,00002.112631,-00000.325011,00000.024775,-00000.351342,00000.074871,-00000.007207,-00000.018341
0000000001006,00002.586885,00001.867971,00002.117208,00002.809083,00002.697680,00002.687362,00002.706574,00003.325113,00002.846057,00002.112653,-00000.324797,00000.025111,-00000.350984,00000.075104,-00000.007026,-00000.018402
0000000001007,00002.586482,00001.868072,00002.117994,00002.808884,00002.697713,00002.687119,00002.707053,00003.325267,00002.846376,00002.112662,-00000.324571,00000.025444,-00000.350614,00000.075710,-00000.006498,-00000.018153
0000000001008,00002.586413,00001.867741,00002.118735,00002.808584,00002.697422,00002.687186,00002.706806,00003.325518,00002.846228,00002.112317,-00000.324388,00000.025731,-00000.350310,00000.075908,-00000.006344,-00000.018205
0000000001009,00002.586070,00001.867827,00002.119404,00002.808415,00002.697812,00002.686980,00002.707215,00003.325287,00002.846137,00002.111962,-00000.324196,00000.026014,-00000.349995,00000.076061,-00000.006257,-00000.018356
0000000001010,00002.586011,00001.867907,00002.120034,00002.808885,00002.697927,00002.687400,00002.707730,00003.325500,00002.846736,00002.112032,-00000.324040,00000.026258,-00000.349735,00000.076230,-00000.006126,-00000.018401
0000000001011,00002.586082,00001.867980,00002.120604,00002.809467,00002.697534,00002.687586,00002.707715,00003.325303,00002.846659,00002.112092,-00000.323877,00000.026499,-00000.349467,00000.076360,-00000.006052,-00000.018166
0000000001012,00002.585669,00001.868049,00002.121141,00002.810230,00002.697631,00002.687218,00002.707791,00003.325123,00002.846806,00002.111788,-00000.323744,00000.027070,-00000.349246,00000.076141,-00000.005941,-00000.018204
0000000001013,00002.585729,00001.868111,00002.121625,00002.811088,00002.697660,00002.687377,00002.707415,00003.325317,00002.846740,00002.111840,-00000.323605,00000.027275,-00000.349018,00000.076252,-00000.005878,-00000.018367
0000000001014,00002.585378,00001.868169,00002.122082,00002.811375,00002.697743,00002.687064,00002.707480,00003.325164,00002.846502,00002.111944,-00000.323492,00000.027398,-00000.348830,00000.076428,-00000.005783,-00000.018399
0000000001015,00002.585066,00001.868222,00002.122132,00002.811379,00002.697767,00002.686837,00002.707523,00003.324967,00002.846809,00002.111988,-00000.323373,00000.027936,-00000.348636,00000.076523,-00000.006092,-00000.018538
0000000001016,00002.585130,00001.868635,00002.122884,00002.811261,00002.698200,00002.686933,00002.707940,00003.325199,00002.846970,00002.111714,-00000.323277,00000.028403,-00000.348475,00000.076673,-00000.006011,-00000.018566
0000000001017,00002.584865,00001.868680,00002.123290,00002.811265,00002.698221,00002.686739,00002.707977,00003.324668,00002.846868,00002.111389,-00000.323176,00000.028861,-00000.347947,00000.076753,-00000.005912,-00000.018321
0000000001018,00002.584919,00001.868668,00002.123567,00002.810801,00002.698589,00002.686458,00002.707970,00003.324866,00002.846642,00002.111518,-00000.323095,00000.028896,-00000.347811,00000.076881,-00000.006206,-00000.018345
0000000001019,00002.584693,00001.868344,00002.123912,00002.810079,00002.698607,00002.686293,00002.708001,00003.325140,00002.846555,00002.111241,-00000.323009,00000.029285,-00000.347724,00000.076949,-00000.006484,-00000.018499
0000000001020,00002.584376,00001.868334,00002.124148,00002.809321,00002.698558,00002.686054,00002.707995,00003.325308,00002.846363,00002.110988,-00000.322939,00000.029678,-00000.347608,00000.077058,-00000.006734,-00000.018519
0000000001021,00002.583821,00001.868420,00002.124442,00002.809069,00002.698573,00002.685914,00002.708021,00003.325178,00002.846652,00002.110753,-00000.322866,00000.030010,-00000.347534,00000.077116,-00000.006608,-00000.018651
0000000001022,00002.583189,00001.868412,00002.124280,00002.808787,00002.698169,00002.685710,00002.708016,00003.324958,00002.846851,00002.110175,-00000.322807,00000.029981,-00000.347435,00000.077209,-00000.006458,-00000.018668
0000000001023,00002.582717,00001.868486,00002.124167,00002.808572,00002.697819,00002.685591,00002.707676,00003.324848,00002.846734,00002.109611,-00000.322745,00000.029901,-00000.347372,00000.076896,-00000.006714,-00000.018780
0000000001024,00002.582178,00001.868479,00002.124392,00002.808332,00002.698200,00002.685417,00002.708034,00003.324661,00002.846903,00002.109482,-00000.322694,00000.030239,-00000.347288,00000.076612,-00000.006949,-00000.018794
0000000001025,00002.581413,00001.868179,00002.124659,00002.808150,00002.697902,00002.685678,00002.707745,00003.324930,00002.846804,00002.109002,-00000.322641,00000.030171,-00000.347235,00000.076345,-00000.007530,-00000.018527
0000000001026,00002.580229,00001.867810,00002.124850,00002.807220,00002.697864,00002.685168,00002.707324,00003.324771,00002.846223,00002.108892,-00000.322598,00000.030096,-00000.347163,00000.076103,-00000.008093,-00000.018539
0000000001027,00002.579578,00001.867917,00002.125078,00002.807064,00002.697610,00002.685390,00002.707441,00003.325000,00002.846501,00002.108484,-00000.322553,00000.030038,-00000.347480,00000.075876,-00000.008224,-00000.018674
0000000001028,00002.578570,00001.867966,00002.124878,00002.806635,00002.697215,00002.684956,00002.707445,00003.324864,00002.846369,00002.108028,-00000.322516,00000.029974,-00000.347419,00000.075671,-00000.007978,-00000.018685
0000000001029,00002.578016,00001.867694,00002.125071,00002.806503,00002.696999,00002.684782,00002.707182,00003.324696,00002.846243,00002.107680,-00000.322478,00000.029925,-00000.347327,00000.075477,-00000.008089,-00000.018800
0000000001030,00002.577521,00001.867373,00002.125264,00002.806138,00002.697025,00002.684775,00002.706823,00003.324944,00002.845768,00002.107292,-00000.322447,00000.029871,-00000.347275,00000.075665,-00000.007880,-00000.018809
0000000001031,00002.577049,00001.867505,00002.125429,00002.805662,00002.697204,00002.684265,00002.706961,00003.324801,00002.845298,00002.107358,-00000.322414,00000.030191,-00000.347196,00000.075863,-00000.007975,-00000.018906
0000000001032,00002.576627,00001.867231,00002.125230,00002.805714,00002.696864,00002.684258,00002.706656,00003.324649,00002.844893,00002.106665,-00000.322388,00000.030145,-00000.347152,00000.076023,-00000.008159,-00000.018914
0000000001033,00002.576588,00001.866981,00002.125370,00002.805672,00002.697016,00002.684549,00002.706411,00003.324890,00002.844493,00002.106722,-00000.322360,00000.030055,-00000.347447,00000.075829,-00000.008240,-00000.018635
0000000001034,00002.576229,00001.867111,00002.125564,00002.805354,00002.697089,00002.684544,00002.706513,00003.325123,00002.844511,00002.106857,-00000.322337,00000.030016,-00000.347772,00000.075602,-00000.008397,-00000.018278
0000000001035,00002.575833,00001.866897,00002.125683,00002.805318,00002.696856,00002.684792,00002.706305,00003.324965,00002.844533,00002.106542,-00000.322314,00000.029940,-00000.348024,00000.075800,-00000.008466,-00000.018403
0000000001036,00002.576616,00001.867008,00002.126211,00002.805047,00002.696918,00002.685150,00002.706029,00003.325527,00002.844186,00002.105932,-00000.322294,00000.029906,-00000.347938,00000.075969,-00000.008600,-00000.018463
0000000001037,00002.576642,00001.867189,00002.125949,00002.805016,00002.696720,00002.684998,00002.706215,00003.325393,00002.844568,00002.104939,-00000.322274,00000.030204,-00000.347789,00000.076501,-00000.008296,-00000.018206
0000000001038,00002.576945,00001.867283,00002.126036,00002.804785,00002.696773,00002.684941,00002.706343,00003.325508,00002.843910,00002.104056,-00000.322258,00000.030538,-00000.347716,00000.076645,-00000.008046,-00000.017894
0000000001039,00002.576967,00001.867075,00002.125813,00002.804397,00002.696604,00002.684811,00002.706138,00003.325756,00002.843509,00002.103211,-00000.322241,00000.030792,-00000.347590,00000.077097,-00000.007788,-00000.017676
0000000001040,00002.577226,00001.867155,00002.125887,00002.804563,00002.697012,00002.684762,00002.706610,00003.325854,00002.843674,00002.102822,-00000.322227,00000.031076,-00000.347527,00000.077220,-00000.007938,-00000.017410
0000000001041,00002.577607,00001.866977,00002.126423,00002.804595,00002.697231,00002.684652,00002.706435,00003.326066,00002.843333,00002.102465,-00000.322212,00000.030929,-00000.347782,00000.077242,-00000.008081,-00000.017224
0000000001042,00002.577827,00001.866683,00002.126486,00002.804011,00002.697215,00002.684610,00002.706112,00003.326149,00002.843111,00002.102497,-00000.322200,00000.030809,-00000.348092,00000.077347,-00000.008209,-00000.017361
0000000001043,00002.578152,00001.866532,00002.126580,00002.803675,00002.697402,00002.684517,00002.705963,00003.326692,00002.842820,00002.102193,-00000.322188,00000.030684,-00000.347947,00000.077366,-00000.008330,-00000.017565
0000000001044,00002.577977,00001.866644,00002.126633,00002.803541,00002.697388,00002.684118,00002.706413,00003.326763,00002.842994,00002.102221,-00000.322178,00000.030581,-00000.347848,00000.077455,-00000.008440,-00000.017319
0000000001045,00002.578253,00001.866878,00002.127075,00002.803255,00002.697910,00002.684039,00002.706649,00003.327226,00002.843110,00002.102688,-00000.322167,00000.030474,-00000.347724,00000.077833,-00000.008543,-00000.017130
0000000001046,00002.578104,00001.866610,00002.127121,00002.802778,00002.697898,00002.684062,00002.706307,00003.326923,00002.842532,00002.102711,-00000.322159,00000.030387,-00000.347639,00000.077909,-00000.008636,-00000.016920
0000000001047,00002.577976,00001.866810,00002.127135,00002.802897,00002.697617,00002.683994,00002.706145,00003.326591,00002.842267,00002.102383,-00000.322150,00000.030296,-00000.347534,00000.077869,-00000.008724,-00000.016760
0000000001048,00002.577486,00001.866945,00002.127173,00002.802491,00002.697607,00002.683652,00002.706216,00003.326334,00002.842138,00002.102040,-00000.322142,00000.030222,-00000.347825,00000.077571,-00000.009166,-00000.016581
0000000001049,00002.577740,00001.867114,00002.127548,00002.802593,00002.697367,00002.683957,00002.706079,00003.326777,00002.841913,00002.102123,-00000.322135,00000.030145,-00000.348098,00000.077174,-00000.009603,-00000.016444
0000000001050,00002.577686,00001.867230,00002.127944,00002.802610,00002.697722,00002.684028,00002.706139,00003.326920,00002.841803,00002.102194,-00000.322128,00000.030082,-00000.348345,00000.077283,-00000.009979,-00000.016292
0000000001051,00002.577540,00001.867374,00002.127537,00002.802334,00002.697881,00002.683562,00002.706385,00003.326572,00002.841975,00002.101902,-00000.322122,00000.030016,-00000.348578,00000.077307,-00000.009989,-00000.016176
0000000001052,00002.577856,00001.867835,00002.127874,00002.802711,00002.698183,00002.683622,00002.706800,00003.326694,00002.842244,00002.101962,-00000.322117,00000.029962,-00000.348789,00000.077037,-00000.010309,-00000.016046
0000000001053,00002.578095,00001.867958,00002.127528,00002.802838,00002.697955,00002.683226,00002.706646,00003.326397,00002.842027,00002.101351,-00000.322111,00000.029906,-00000.348986,00000.077058,-00000.010681,-00000.015947
0000000001054,00002.578727,00001.867624,00002.127452,00002.803522,00002.697849,00002.683277,00002.706273,00003.326502,00002.841893,00002.101040,-00000.322107,00000.029860,-00000.349166,00000.077191,-00000.010953,-00000.015837
0000000001055,00002.578930,00001.867366,00002.127520,00002.803994,00002.697655,00002.683665,00002.706142,00003.326975,00002.841708,00002.100519,-00000.322102,00000.029813,-00000.349334,00000.077209,-00000.011269,-00000.015753
0000000001056,00002.579105,00001.867445,00002.127092,00002.804939,00002.697202,00002.683709,00002.706188,00003.326700,00002.841595,00002.099529,-00000.322098,00000.029773,-00000.349487,00000.077322,-00000.011501,-00000.015659
0000000001057,00002.579641,00001.867588,00002.127150,00002.806066,00002.697763,00002.684039,00002.706802,00003.326740,00002.841800,00002.098723,-00000.322094,00000.029733,-00000.349630,00000.077338,-00000.011770,-00000.015950
0000000001058,00002.580516,00001.867656,00002.127149,00002.806870,00002.697377,00002.684439,00002.706478,00003.326870,00002.841703,00002.097880,-00000.322091,00000.029700,-00000.349761,00000.077434,-00000.011968,-00000.016233
0000000001059,00002.581334,00001.867777,00002.127199,00002.807467,00002.697492,00002.685083,00002.706275,00003.326904,00002.841515,00002.097194,-00000.322087,00000.029665,-00000.349883,00000.077447,-00000.012197,-00000.016118
0000000001060,00002.581716,00001.867835,00002.127198,00002.808152,00002.697164,00002.685424,00002.706362,00003.327014,00002.841796,00002.096838,-00000.322084,00000.029637,-00000.349993,00000.077529,-00000.012365,-00000.015996
0000000001061,00002.582413,00001.867938,00002.127240,00002.809022,00002.697261,00002.685609,00002.706552,00003.327043,00002.841636,00002.096617,-00000.322082,00000.029607,-00000.350460,00000.077540,-00000.012560,-00000.015898
0000000001062,00002.583101,00001.867987,00002.127602,00002.809243,00002.697707,00002.685899,00002.706626,00003.327499,00002.841512,00002.096678,-00000.322079,00000.029583,-00000.350554,00000.077610,-00000.012703,-00000.015794
0000000001063,00002.583694,00001.867712,00002.127637,00002.809258,00002.697427,00002.686057,00002.706425,00003.327524,00002.841376,00002.096852,-00000.322077,00000.029558,-00000.350589,00000.077982,-00000.012506,-00000.015710
0000000001064,00002.584280,00001.867391,00002.127945,00002.809083,00002.697444,00002.686304,00002.706125,00003.327912,00002.841270,00002.097267,-00000.322075,00000.029538,-00000.350669,00000.078404,-00000.012265,-00000.015622
0000000001065,00002.584060,00001.867520,00002.127613,00002.808734,00002.697569,00002.686075,00002.706317,00003.327571,00002.841517,00002.097778,-00000.322073,00000.029517,-00000.350336,00000.079084,-00000.011735,-00000.015914
0000000001066,00002.584195,00001.867609,00002.127513,00002.808584,00002.697583,00002.686285,00002.706425,00003.327176,00002.841790,00002.098131,-00000.322071,00000.029499,-00000.350404,00000.079443,-00000.011530,-00000.015839
0000000001067,00002.584008,00001.867719,00002.127593,00002.807924,00002.697689,00002.686091,00002.706588,00003.326885,00002.842000,00002.098566,-00000.322069,00000.029481,-00000.350483,00000.079659,-00000.011441,-00000.015724
0000000001068,00002.583761,00001.867795,00002.127507,00002.807434,00002.698065,00002.685907,00002.707042,00003.326549,00002.842232,00002.098866,-00000.322068,00000.029466,-00000.350541,00000.079965,-00000.011629,-00000.015660
0000000001069,00002.583964,00001.867889,00002.127938,00002.806872,00002.698155,00002.685741,00002.707181,00003.326301,00002.842048,00002.099599,-00000.322066,00000.029451,-00000.350971,00000.079786,-00000.011917,-00000.015563
0000000001070,00002.583753,00001.867954,00002.127865,00002.806818,00002.698111,00002.685948,00002.707205,00003.326015,00002.842246,00002.099855,-00000.322428,00000.029438,-00000.351021,00000.079683,-00000.012077,-00000.015508
0000000001071,00002.583563,00001.867670,00002.127869,00002.805976,00002.698188,00002.685444,00002.706961,00003.325804,00002.841727,00002.100117,-00000.322426,00000.029425,-00000.351387,00000.079531,-00000.012321,-00000.015788
0000000001072,00002.583384,00001.867726,00002.127807,00002.805930,00002.698514,00002.685257,00002.707344,00003.325561,00002.841895,00002.100334,-00000.322371,00000.029414,-00000.351792,00000.079444,-00000.012458,-00000.015742
0000000001073,00002.583585,00001.867484,00002.127810,00002.805214,00002.698579,00002.685191,00002.706773,00003.325381,00002.841453,00002.100557,-00000.322733,00000.029403,-00000.352103,00000.079677,-00000.012666,-00000.015980
0000000001074,00002.583433,00001.867169,00002.127758,00002.804449,00002.698494,00002.684669,00002.706374,00003.324811,00002.840871,00002.100742,-00000.322686,00000.029394,-00000.352448,00000.079966,-00000.012419,-00000.015940
0000000001075,00002.583604,00001.867326,00002.127760,00002.804202,00002.698912,00002.684612,00002.706613,00003.325021,00002.840857,00002.101294,-00000.322631,00000.029384,-00000.352350,00000.079801,-00000.012234,-00000.016143
0000000001076,00002.583111,00001.867057,00002.127353,00002.803551,00002.698477,00002.684168,00002.706273,00003.324173,00002.840724,00002.101089,-00000.322591,00000.029376,-00000.352281,00000.079684,-00000.012024,-00000.016110
0000000001077,00002.582894,00001.866829,00002.127355,00002.803341,00002.698470,00002.684120,00002.706115,00003.323989,00002.840713,00002.101197,-00000.322545,00000.029368,-00000.352561,00000.079544,-00000.011866,-00000.015920
0000000001078,00002.582475,00001.866962,00002.127008,00002.803149,00002.698100,00002.684104,00002.706188,00003.323267,00002.840962,00002.101385,-00000.322511,00000.029362,-00000.352502,00000.079444,-00000.012050,-00000.015891
0000000001079,00002.582290,00001.866768,00002.127010,00002.802970,00002.698094,00002.684064,00002.706053,00003.323110,00002.840590,00002.101839,-00000.322471,00000.029355,-00000.352377,00000.079325,-00000.011915,-00000.015729
0000000001080,00002.582296,00001.866519,00002.127077,00002.802807,00002.698141,00002.683687,00002.706115,00003.323221,00002.840440,00002.102362,-00000.322442,00000.029349,-00000.352690,00000.079240,-00000.011709,-00000.015705
0000000001081,00002.582138,00001.866716,00002.126716,00002.802655,00002.697774,00002.683653,00002.706000,00003.322725,00002.840485,00002.102749,-00000.322408,00000.029343,-00000.352947,00000.079139,-00000.011957,-00000.015204
0000000001082,00002.582143,00001.866504,00002.126048,00002.802516,00002.697451,00002.683695,00002.705691,00003.322457,00002.840357,00002.102831,-00000.322384,00000.029338,-00000.353213,00000.079067,-00000.012145,-00000.015183
0000000001083,00002.582009,00001.866672,00002.125741,00002.802387,00002.697501,00002.683666,00002.705955,00003.322397,00002.840759,00002.103160,-00000.322355,00000.029333,-00000.353431,00000.078618,-00000.012356,-00000.015120
0000000001084,00002.582013,00001.866854,00002.125897,00002.802268,00002.697589,00002.683339,00002.706055,00003.322168,00002.840650,00002.103230,-00000.322334,00000.029329,-00000.353658,00000.078556,-00000.012516,-00000.015102
0000000001085,00002.582262,00001.866634,00002.125999,00002.802158,00002.697269,00002.683677,00002.705917,00003.322118,00002.840629,00002.103511,-00000.322309,00000.029325,-00000.353481,00000.078537,-00000.012695,-00000.015048
0000000001086,00002.582266,00001.866790,00002.126132,00002.802057,00002.697344,00002.683762,00002.706002,00003.321923,00002.840536,00002.103570,-00000.322291,00000.029322,-00000.353311,00000.078847,-00000.012468,-00000.015033
0000000001087,00002.582115,00001.866965,00002.126218,00002.801963,00002.697434,00002.683687,00002.706247,00003.321517,00002.840881,00002.103809,-00000.322271,00000.029318,-00000.353161,00000.079193,-00000.012259,-00000.014987
0000000001088,00002.582118,00001.867098,00002.126332,00002.801878,00002.697498,00002.683759,00002.706682,00003.321714,00002.841165,00002.104223,-00000.322255,00000.029315,-00000.353379,00000.079457,-00000.012066,-00000.014612
0000000001089,00002.582352,00001.866884,00002.126405,00002.802523,00002.697212,00002.683695,00002.706529,00003.322094,00002.841096,00002.104426,-00000.322238,00000.029312,-00000.353613,00000.079389,-00000.011887,-00000.014210
0000000001090,00002.582355,00001.866997,00002.126502,00002.802813,00002.697266,00002.683756,00002.706536,00003.322625,00002.840975,00002.104778,-00000.322225,00000.029309,-00000.353436,00000.079614,-00000.011723,-00000.013890
0000000001091,00002.582554,00001.866815,00002.126564,00002.803000,00002.697385,00002.683701,00002.706405,00003.322586,00002.840553,00002.105314,-00000.322210,00000.029307,-00000.353636,00000.079556,-00000.011571,-00000.013548
0000000001092,00002.582919,00001.866548,00002.126646,00002.803247,00002.697432,00002.683754,00002.706049,00003.323038,00002.840450,00002.105976,-00000.322561,00000.028942,-00000.354211,00000.079022,-00000.011431,-00000.013639
0000000001093,00002.583452,00001.866756,00002.127062,00002.804131,00002.697896,00002.684070,00002.706300,00003.323367,00002.840454,00002.106795,-00000.322548,00000.028577,-00000.354744,00000.078610,-00000.011664,-00000.013348
0000000001094,00002.583762,00001.867255,00002.127132,00002.805430,00002.697935,00002.684840,00002.706359,00003.323389,00002.841092,00002.107359,-00000.322485,00000.028266,-00000.355596,00000.077793,-00000.011908,-00000.013062
0000000001095,00002.584216,00001.867432,00002.127123,00002.805820,00002.698331,00002.684747,00002.706211,00003.323306,00002.841095,00002.107693,-00000.322474,00000.028318,-00000.356412,00000.077079,-00000.012106,-00000.012814
0000000001096,00002.583755,00001.867493,00002.126820,00002.806200,00002.698001,00002.684677,00002.706261,00003.322962,00002.841275,00002.107811,-00000.322420,00000.028054,-00000.356775,00000.076383,-00000.012314,-00000.012934
0000000001097,00002.583415,00001.868007,00002.126813,00002.806532,00002.698338,00002.684597,00002.706860,00003.322892,00002.841641,00002.108095,-00000.322411,00000.027735,-00000.357107,00000.076138,-00000.012483,-00000.013085
0000000001098,00002.583748,00001.868059,00002.126918,00002.807218,00002.698783,00002.684900,00002.706540,00003.323324,00002.841431,00002.108921,-00000.322728,00000.027510,-00000.357779,00000.075546,-00000.012659,-00000.013187
0000000001099,00002.584185,00001.868134,00002.127274,00002.807864,00002.699070,00002.685195,00002.706688,00003.323627,00002.841380,00002.109526,-00000.323083,00000.027239,-00000.358424,00000.074975,-00000.012803,-00000.013316
0000000001100,00002.584105,00001.868178,00002.127363,00002.808448,00002.699086,00002.685454,00002.706778,00003.323633,00002.841564,00002.109866,-00000.322990,00000.027047,-00000.358996,00000.074470,-00000.012954,-00000.013040
0000000001101,00002.583751,00001.867879,00002.127304,00002.808272,00002.698967,00002.685342,00002.706540,00003.323891,00002.841520,00002.110018,-00000.322929,00000.026816,-00000.359545,00000.073984,-00000.013439,-00000.013150
0000000001102,00002.584047,00001.867917,00002.127380,00002.808769,00002.698981,00002.685562,00002.706617,00003.323895,00002.842040,00002.110307,-00000.322850,00000.027016,-00000.360032,00000.073555,-00000.013567,-00000.012915
0000000001103,00002.584108,00001.868025,00002.127329,00002.810071,00002.698517,00002.685829,00002.706415,00003.323390,00002.842366,00002.110074,-00000.322798,00000.026819,-00000.360500,00000.073141,-00000.013618,-00000.012646
0000000001104,00002.584722,00001.868057,00002.127394,00002.811220,00002.698166,00002.686017,00002.706481,00003.323756,00002.842446,00002.110321,-00000.323093,00000.026627,-00000.360914,00000.072775,-00000.013726,-00000.012446
0000000001105,00002.585137,00001.868149,00002.127714,00002.811965,00002.698134,00002.686244,00002.706672,00003.324051,00002.842723,00002.110848,-00000.323049,00000.026459,-00000.360950,00000.072423,-00000.013769,-00000.012217
0000000001106,00002.586023,00001.868539,00002.128131,00002.812943,00002.698198,00002.687129,00002.706727,00003.324726,00002.842791,00002.111420,-00000.322938,00000.026295,-00000.361302,00000.072475,-00000.013499,-00000.012046
0000000001107,00002.586739,00001.868980,00002.128404,00002.813577,00002.698533,00002.687323,00002.707252,00003.325340,00002.843026,00002.112232,-00000.322901,00000.026516,-00000.361333,00000.072900,-00000.013173,-00000.011851
0000000001108,00002.587493,00001.868950,00002.128759,00002.814047,00002.698950,00002.687714,00002.707300,00003.325552,00002.843084,00002.112719,-00000.322806,00000.026739,-00000.360907,00000.073307,-00000.012943,-00000.011706
0000000001109,00002.588103,00001.868962,00002.128991,00002.814587,00002.698873,00002.688242,00002.707021,00003.326074,00002.843285,00002.113047,-00000.322774,00000.026926,-00000.360570,00000.073669,-00000.012303,-00000.011540
0000000001110,00002.588745,00001.868936,00002.129657,00002.814624,00002.699228,00002.688574,00002.707062,00003.326617,00002.843334,00002.113825,-00000.322693,00000.027116,-00000.360208,00000.073653,-00000.011744,-00000.011417
0000000001111,00002.589264,00001.868947,00002.129854,00002.814721,00002.699525,00002.689024,00002.707188,00003.327062,00002.843505,00002.114467,-00000.322666,00000.027639,-00000.359921,00000.073599,-00000.011562,-00000.011275
0000000001112,00002.589447,00001.868562,00002.129695,00002.814752,00002.699102,00002.689307,00002.706859,00003.327162,00002.843547,00002.114766,-00000.322235,00000.028163,-00000.359613,00000.073585,-00000.011449,-00000.011170
0000000001113,00002.589163,00001.868571,00002.129500,00002.814472,00002.698629,00002.689327,00002.706966,00003.326815,00002.843692,00002.114587,-00000.322212,00000.028608,-00000.359369,00000.073538,-00000.011294,-00000.011050
0000000001114,00002.589320,00001.868243,00002.129728,00002.814136,00002.698632,00002.689567,00002.707049,00003.327262,00002.844091,00002.114842,-00000.322207,00000.029054,-00000.359106,00000.073889,-00000.010835,-00000.010960
0000000001115,00002.589078,00001.868614,00002.129562,00002.814260,00002.698955,00002.689584,00002.707503,00003.326967,00002.844578,00002.114690,-00000.322187,00000.029433,-00000.358898,00000.074212,-00000.010340,-00000.010858
0000000001116,00002.588848,00001.868698,00002.129393,00002.814337,00002.698957,00002.689789,00002.707574,00003.326623,00002.844554,00002.114544,-00000.322184,00000.029813,-00000.358675,00000.074511,-00000.009949,-00000.010782
0000000001117,00002.588643,00001.868651,00002.129251,00002.814080,00002.699232,00002.689804,00002.707598,00003.326734,00002.844968,00002.114414,-00000.322167,00000.030135,-00000.358498,00000.074786,-00000.009891,-00000.010694
0000000001118,00002.588810,00001.868722,00002.129107,00002.814146,00002.699234,00002.689978,00002.707295,00003.326803,00002.844585,00002.114290,-00000.322164,00000.030459,-00000.358308,00000.074678,-00000.009921,-00000.010992
0000000001119,00002.588635,00001.868682,00002.129350,00002.813927,00002.699468,00002.689991,00002.707315,00003.326898,00002.844575,00002.114179,-00000.322149,00000.030733,-00000.358157,00000.074912,-00000.009508,-00000.011281
0000000001120,00002.588777,00001.868742,00002.129590,00002.813982,00002.699470,00002.690139,00002.707421,00003.327320,00002.844612,00002.114436,-00000.322147,00000.031009,-00000.357995,00000.075183,-00000.009534,-00000.011535
0000000001121,00002.588628,00001.868708,00002.129434,00002.814522,00002.698943,00002.690150,00002.707438,00003.327401,00002.844604,00002.114342,-00000.322134,00000.031605,-00000.357867,00000.075382,-00000.009183,-00000.011780
0000000001122,00002.588749,00001.868397,00002.129276,00002.814569,00002.698945,00002.689913,00002.707165,00003.327397,00002.844635,00002.114198,-00000.322132,00000.031840,-00000.357729,00000.075612,-00000.009205,-00000.011996
0000000001123,00002.588623,00001.868368,00002.129143,00002.814665,00002.698860,00002.689922,00002.707179,00003.327103,00002.844990,00002.114118,-00000.322484,00000.032347,-00000.357620,00000.075782,-00000.009631,-00000.011842
0000000001124,00002.588000,00001.868466,00002.128645,00002.815431,00002.698861,00002.689721,00002.707309,00003.326737,00002.845017,00002.113996,-00000.322845,00000.032910,-00000.357503,00000.075615,-00000.009650,-00000.011663
0000000001125,00002.588255,00001.868441,00002.128895,00002.815876,00002.699151,00002.690091,00002.707322,00003.327213,00002.844957,00002.114653,-00000.322782,00000.033342,-00000.357410,00000.075397,-00000.009650,-00000.011533
0000000001126,00002.588088,00001.868162,00002.128834,00002.815803,00002.699152,00002.689920,00002.707070,00003.327264,00002.844980,00002.114912,-00000.322727,00000.033821,-00000.356947,00000.075255,-00000.010029,-00000.011743
0000000001127,00002.587942,00001.868140,00002.128683,00002.815818,00002.699036,00002.689873,00002.707080,00003.327306,00002.844928,00002.114746,-00000.323036,00000.034189,-00000.356868,00000.075069,-00000.010392,-00000.011995
0000000001128,00002.588163,00001.868265,00002.128994,00002.815756,00002.699400,00002.690090,00002.707592,00003.327712,00002.844948,00002.114966,-00000.322989,00000.034596,-00000.356474,00000.075311,-00000.010714,-00000.012174
0000000001129,00002.588401,00001.868247,00002.129229,00002.815769,00002.699664,00002.690049,00002.707963,00003.327748,00002.844904,00002.115187,-00000.323252,00000.034910,-00000.356044,00000.075516,-00000.010661,-00000.012025
0000000001130,00002.588226,00001.868354,00002.128768,00002.815716,00002.699611,00002.689871,00002.708036,00003.327368,00002.845283,00002.115012,-00000.323575,00000.035257,-00000.355708,00000.075722,-00000.010572,-00000.011815
0000000001131,00002.588792,00001.867976,00002.128605,00002.816090,00002.699473,00002.690200,00002.707627,00003.327761,00002.845246,00002.115201,-00000.323799,00000.035523,-00000.354979,00000.075896,-00000.010527,-00000.011688
0000000001132,00002.589006,00001.868066,00002.128939,00002.816045,00002.699791,00002.690048,00002.707688,00003.328164,00002.844844,00002.115414,-00000.324073,00000.035819,-00000.354694,00000.076071,-00000.010451,-00000.011872
0000000001133,00002.588762,00001.868107,00002.128800,00002.816364,00002.700036,00002.689965,00002.708066,00003.328136,00002.845175,00002.115212,-00000.324264,00000.036046,-00000.354436,00000.075857,-00000.010412,-00000.011764
0000000001134,00002.588944,00001.868184,00002.128721,00002.816688,00002.699944,00002.690199,00002.708118,00003.328115,00002.845558,00002.115031,-00000.324498,00000.036660,-00000.353830,00000.076006,-00000.010711,-00000.011920
0000000001135,00002.588736,00001.868219,00002.128603,00002.816233,00002.699790,00002.689765,00002.708076,00003.327729,00002.845839,00002.114858,-00000.324660,00000.037216,-00000.353248,00000.075824,-00000.010678,-00000.012191
0000000001136,00002.588891,00001.868647,00002.124182,00002.816509,00002.699711,00002.689964,00002.708121,00003.327711,00002.846165,00002.114341,-00000.324859,00000.037376,-00000.352732,00000.075588,-00000.010570,-00000.012325
0000000001137,00002.588715,00001.869040,00002.118277,00002.815760,00002.699943,00002.689957,00002.708448,00003.327745,00002.846405,00002.113832,-00000.325723,00000.037487,-00000.351874,00000.075432,-00000.010904,-00000.012555
0000000001138,00002.588484,00001.869404,00002.111974,00002.814906,00002.699876,00002.689764,00002.708486,00003.327368,00002.846320,00002.113029,-00000.326618,00000.037260,-00000.351072,00000.075232,-00000.011175,-00000.012669
0000000001139,00002.588333,00001.869376,00002.105496,00002.813905,00002.699710,00002.689759,00002.708040,00003.327396,00002.845436,00002.112233,-00000.327716,00000.036991,-00000.349978,00000.074737,-00000.011822,-00000.012865
0000000001140,00002.588137,00001.869686,00002.099042,00002.813179,00002.699653,00002.689957,00002.707709,00003.327438,00002.845363,00002.111549,-00000.329204,00000.036799,-00000.349296,00000.074203,-00000.012415,-00000.012962
0000000001141,00002.588372,00001.870025,00002.092801,00002.812690,00002.699512,00002.690315,00002.707329,00003.327825,00002.844973,00002.110871,-00000.330502,00000.036570,-00000.348728,00000.073781,-00000.012967,-00000.013129
0000000001142,00002.588567,00001.870289,00002.086944,00002.811708,00002.699464,00002.690121,00002.707047,00003.327860,00002.844549,00002.110289,-00000.332131,00000.036769,-00000.347784,00000.072964,-00000.013472,-00000.013211
0000000001143,00002.588767,00001.870940,00002.081269,00002.810929,00002.699707,00002.690063,00002.707449,00003.327827,00002.844580,00002.109712,-00000.333598,00000.037299,-00000.347300,00000.072243,-00000.013941,-00000.013353
0000000001144,00002.588933,00001.871528,00002.076282,00002.810819,00002.700028,00002.689898,00002.707572,00003.327857,00002.844581,00002.108854,-00000.334985,00000.037831,-00000.346859,00000.071547,-00000.014371,-00000.013423
0000000001145,00002.589466,00001.872082,00002.071088,00002.810519,00002.699872,00002.690211,00002.707552,00003.327466,00002.844607,00002.108000,-00000.336234,00000.038283,-00000.346085,00000.070933,-00000.014770,-00000.013544
0000000001146,00002.589971,00001.872582,00002.066481,00002.810062,00002.699783,00002.690433,00002.707657,00003.327129,00002.844971,00002.107270,-00000.337778,00000.038736,-00000.345710,00000.070341,-00000.015136,-00000.013604
0000000001147,00002.590787,00001.873054,00002.062422,00002.810532,00002.700376,00002.690700,00002.708002,00003.327521,00002.844994,00002.107268,-00000.339204,00000.039121,-00000.345050,00000.069818,-00000.015476,-00000.013707
0000000001148,00002.591942,00001.873480,00002.058862,00002.810869,00002.700300,00002.690889,00002.708091,00003.327960,00002.845303,00002.107009,-00000.340881,00000.039869,-00000.344368,00000.069314,-00000.015788,-00000.013758
0000000001149,00002.593000,00001.873881,00002.055044,00002.811269,00002.700442,00002.691117,00002.707659,00003.328294,00002.845322,00002.106645,-00000.342458,00000.040197,-00000.343807,00000.068506,-00000.016077,-00000.013846
0000000001150,00002.595072,00001.874607,00002.051651,00002.812644,00002.700377,00002.691278,00002.707735,00003.328305,00002.844861,00002.106061,-00000.343885,00000.040834,-00000.343226,00000.067714,-00000.016705,-00000.013889
0000000001151,00002.598149,00001.875311,00002.048400,00002.813710,00002.700498,00002.691834,00002.707730,00003.328589,00002.844877,00002.105751,-00000.345590,00000.041475,-00000.342385,00000.067026,-00000.017315,-00000.013964
0000000001152,00002.600638,00001.875929,00002.044423,00002.814156,00002.700443,00002.691971,00002.707795,00003.328235,00002.845209,00002.105618,-00000.347531,00000.042018,-00000.341165,00000.066715,-00000.017849,-00000.014000
0000000001153,00002.603258,00001.876891,00002.040205,00002.814337,00002.700546,00002.692082,00002.708154,00003.328115,00002.845586,00002.104991,-00000.349708,00000.042201,-00000.339724,00000.066492,-00000.018368,-00000.014064
0000000001154,00002.605377,00001.878143,00002.035368,00002.813991,00002.700862,00002.692198,00002.708209,00003.327813,00002.845506,00002.103789,-00000.352086,00000.042300,-00000.338323,00000.065864,-00000.018823,-00000.014095
0000000001155,00002.607607,00001.878962,00002.030326,00002.813420,00002.700949,00002.692655,00002.708152,00003.327711,00002.845101,00002.102892,-00000.355028,00000.042093,-00000.337096,00000.065312,-00000.019264,-00000.014149
0000000001156,00002.610136,00001.880027,00002.025483,00002.812762,00002.701581,00002.693117,00002.708561,00003.328180,00002.845033,00002.102232,-00000.358503,00000.041452,-00000.335177,00000.064414,-00000.020015,-00000.014539
0000000001157,00002.612398,00001.881088,00002.018651,00002.812277,00002.701655,00002.693144,00002.708512,00003.328455,00002.845051,00002.101106,-00000.362822,00000.040550,-00000.333044,00000.063581,-00000.021116,-00000.014948
0000000001158,00002.614551,00001.881995,00002.011988,00002.811717,00002.702193,00002.693174,00002.708499,00003.328492,00002.844993,00002.099818,-00000.368683,00000.039641,-00000.330685,00000.062817,-00000.022480,-00000.015642
0000000001159,00002.615751,00001.883260,00002.005084,00002.810577,00002.702257,00002.692834,00002.708820,00003.327638,00002.845009,00002.098134,-00000.375261,00000.038874,-00000.328507,00000.061745,-00000.024506,-00000.016716
0000000001160,00002.617221,00001.884032,00001.999049,00002.808649,00002.702352,00002.692860,00002.708808,00003.327669,00002.844597,00002.096674,-00000.382790,00000.038100,-00000.326136,00000.060369,-00000.026756,-00000.017670
0000000001161,00002.618605,00001.885110,00001.993172,00002.806228,00002.702768,00002.692570,00002.708718,00003.326942,00002.844247,00002.095604,-00000.391293,00000.037447,-00000.323919,00000.058731,-00000.029207,-00000.018584
0000000001162,00002.619857,00001.886130,00001.987309,00002.803499,00002.702849,00002.692592,00002.708708,00003.326606,00002.843533,00002.094361,-00000.400605,00000.036788,-00000.321900,00000.057197,-00000.031485,-00000.019396
0000000001163,00002.620672,00001.887409,00001.981217,00002.801075,00002.702841,00002.692346,00002.708632,00003.325987,00002.843236,00002.092724,-00000.410745,00000.035869,-00000.319650,00000.055803,-00000.033933,-00000.020174
0000000001164,00002.621375,00001.888641,00001.974412,00002.797300,00002.702548,00002.691639,00002.708624,00003.324613,00002.842628,00002.090941,-00000.421575,00000.034583,-00000.317206,00000.054859,-00000.036235,-00000.021228
0000000001165,00002.621706,00001.889730,00001.967049,00002.791972,00002.702541,00002.691066,00002.708922,00003.324086,00002.842012,00002.089547,-00000.434561,00000.033438,-00000.313839,00000.054761,-00000.038320,-00000.022253
0000000001166,00002.621942,00001.890415,00001.957990,00002.786219,00002.702291,00002.690464,00002.708551,00003.324004,00002.841495,00002.088029,-00000.448497,00000.031980,-00000.310308,00000.054320,-00000.039917,-00000.023150
0000000001167,00002.621135,00001.891343,00001.948094,00002.779869,00002.701922,00002.689251,00002.708442,00003.323555,00002.840607,00002.086480,-00000.462817,00000.030280,-00000.307079,00000.052422,-00000.040966,-00000.024386
0000000001168,00002.619522,00001.892289,00001.938569,00002.772431,00002.701709,00002.687651,00002.708490,00003.322760,00002.839441,00002.084825,-00000.477582,00000.027950,-00000.304072,00000.051322,-00000.041963,-00000.025513
0000000001169,00002.618473,00001.893079,00001.929419,00002.765212,00002.701395,00002.686255,00002.708397,00003.322378,00002.838323,00002.083143,-00000.492313,00000.024326,-00000.301686,00000.050432,-00000.042856,-00000.026564
0000000001170,00002.617462,00001.893884,00001.920585,00002.758518,00002.700851,00002.685255,00002.708075,00003.322064,00002.837331,00002.081734,-00000.507060,00000.020529,-00000.300215,00000.049132,-00000.044067,-00000.027524
0000000001171,00002.616569,00001.894919,00001.912795,00002.752008,00002.700584,00002.684430,00002.707996,00003.321739,00002.836742,00002.080666,-00000.521414,00000.017443,-00000.298909,00000.048375,-00000.044827,-00000.028419
0000000001172,00002.615345,00001.895605,00001.905275,00002.745947,00002.700121,00002.682853,00002.708084,00003.321109,00002.836260,00002.079466,-00000.535419,00000.014937,-00000.297657,00000.047268,-00000.045133,-00000.028873
0000000001173,00002.614222,00001.896123,00001.898281,00002.740769,00002.699531,00002.681788,00002.708017,00003.320469,00002.835758,00002.078193,-00000.548727,00000.012673,-00000.296545,00000.046623,-00000.045055,-00000.029272
0000000001174,00002.613544,00001.896344,00001.891878,00002.735609,00002.699499,00002.680809,00002.708092,00003.320296,00002.835348,00002.077535,-00000.561375,00000.010902,-00000.295479,00000.046044,-00000.044952,-00000.029296
0000000001175,00002.612950,00001.896786,00001.885561,00002.730837,00002.698997,00002.680264,00002.707672,00003.320114,00002.834921,00002.076452,-00000.573429,00000.009700,-00000.294170,00000.045495,-00000.044523,-00000.029273
0000000001176,00002.612010,00001.897336,00001.880111,00002.726082,00002.698607,00002.679431,00002.707374,00003.319603,00002.834208,00002.075529,-00000.584922,00000.008555,-00000.292900,00000.045365,-00000.043710,-00000.029293
0000000001177,00002.611142,00001.897712,00001.875096,00002.722020,00002.698179,00002.678605,00002.707379,00003.319086,00002.833845,00002.074606,-00000.595547,00000.007895,-00000.291423,00000.045623,-00000.042981,-00000.029274
0000000001178,00002.610341,00001.898181,00001.870094,00002.718697,00002.697848,00002.677895,00002.707487,00003.318651,00002.833602,00002.073820,-00000.605694,00000.007283,-00000.289979,00000.046238,-00000.042289,-00000.029291
0000000001179,00002.609965,00001.898138,00001.865825,00002.714877,00002.697483,00002.677192,00002.707129,00003.318211,00002.832929,00002.073398,-00000.614739,00000.007084,-00000.288721,00000.046820,-00000.041669,-00000.029274
0000000001180,00002.608921,00001.898537,00001.861566,00002.711685,00002.696838,00002.676225,00002.706859,00003.317478,00002.832722,00002.072729,-00000.623014,00000.006925,-00000.287492,00000.046981,-00000.041443,-00000.028926
0000000001181,00002.607875,00001.898863,00001.857569,00002.708796,00002.696165,00002.674900,00002.706554,00003.316377,00002.832150,00002.072007,-00000.631077,00000.007119,-00000.286421,00000.047114,-00000.041277,-00000.028549
0000000001182,00002.607712,00001.898840,00001.854669,00002.706079,00002.695616,00002.674077,00002.706323,00003.316116,00002.831611,00002.071437,-00000.638121,00000.006984,-00000.285374,00000.046888,-00000.041085,-00000.028252
0000000001183,00002.607184,00001.899118,00001.851629,00002.703982,00002.695044,00002.673313,00002.706426,00003.315542,00002.831486,00002.071185,-00000.644622,00000.007149,-00000.284463,00000.046638,-00000.040944,-00000.027932
0000000001184,00002.607045,00001.899099,00001.849523,00002.701669,00002.694939,00002.672975,00002.706593,00003.315683,00002.831390,00002.071425,-00000.651345,00000.007759,-00000.283209,00000.046446,-00000.041143,-00000.027679
0000000001185,00002.606596,00001.898972,00001.847661,00002.699158,00002.694814,00002.672324,00002.706318,00003.315194,00002.830921,00002.071211,-00000.657968,00000.008262,-00000.282071,00000.046596,-00000.041023,-00000.027769
0000000001186,00002.606115,00001.899318,00001.845868,00002.697552,00002.694725,00002.671673,00002.706460,00003.314588,00002.830839,00002.071053,-00000.664053,00000.009145,-00000.281003,00000.046795,-00000.040830,-00000.027917
0000000001187,00002.605370,00001.899574,00001.844283,00002.696140,00002.694256,00002.671119,00002.706226,00003.314172,00002.830440,00002.070507,-00000.670054,00000.009936,-00000.280034,00000.046923,-00000.040728,-00000.027993
0000000001188,00002.604960,00001.899868,00001.843120,00002.694773,00002.694180,00002.670565,00002.706347,00003.314019,00002.830008,00002.070373,-00000.675235,00000.011413,-00000.279125,00000.047093,-00000.040563,-00000.027756
0000000001189,00002.604326,00001.899723,00001.841770,00002.693571,00002.693781,00002.670456,00002.706148,00003.313664,00002.830031,00002.069909,-00000.679981,00000.012812,-00000.277937,00000.047564,-00000.040476,-00000.027459
0000000001190,00002.603977,00001.899611,00001.840780,00002.692044,00002.693716,00002.669985,00002.705888,00003.313534,00002.829663,00002.069794,-00000.685117,00000.014070,-00000.276075,00000.048434,-00000.040336,-00000.027257
0000000001191,00002.603800,00001.899850,00001.839631,00002.691383,00002.693376,00002.669892,00002.706081,00003.313233,00002.829682,00002.069399,-00000.689882,00000.015260,-00000.273976,00000.049199,-00000.039899,-00000.027003
0000000001192,00002.603503,00001.900117,00001.838425,00002.690084,00002.693321,00002.669491,00002.706223,00003.313122,00002.829732,00002.069664,-00000.694254,00000.016331,-00000.272391,00000.049576,-00000.039780,-00000.026832
0000000001193,00002.603352,00001.899958,00001.837810,00002.688433,00002.693394,00002.669049,00002.706024,00003.313228,00002.829386,00002.070053,-00000.698311,00000.017345,-00000.270966,00000.049864,-00000.039771,-00000.026253
0000000001194,00002.603099,00001.899823,00001.837146,00002.687326,00002.692985,00002.669070,00002.705419,00003.313496,00002.829065,00002.069916,-00000.702033,00000.018256,-00000.269617,00000.050186,-00000.039669,-00000.025744
0000000001195,00002.602608,00001.899687,00001.836259,00002.686647,00002.692685,00002.668694,00002.705250,00003.313224,00002.828770,00002.069522,-00000.705124,00000.019482,-00000.268404,00000.050431,-00000.039662,-00000.025252
0000000001196,00002.600216,00001.899572,00001.835331,00002.685705,00002.692336,00002.668349,00002.705098,00003.312727,00002.828497,00002.069043,-00000.708293,00000.023160,-00000.266530,00000.050705,-00000.038850,-00000.024818
0000000001197,00002.596896,00001.899094,00001.834939,00002.684401,00002.691717,00002.668029,00002.704954,00003.312495,00002.828246,00002.068344,-00000.712012,00000.028557,-00000.263683,00000.050188,-00000.038118,-00000.024036
0000000001198,00002.593408,00001.898633,00001.834512,00002.682510,00002.691421,00002.666647,00002.704824,00003.312434,00002.828014,00002.067573,-00000.716161,00000.034228,-00000.260636,00000.050421,-00000.038152,-00000.023305
0000000001199,00002.589856,00001.897500,00001.834179,00002.680312,00002.690894,00002.665287,00002.704339,00003.312599,00002.827800,00002.066616,-00000.720416,00000.039185,-00000.257488,00000.051069,-00000.038254,-00000.022639
0000000001200,00002.586524,00001.896745,00001.833815,00002.678340,00002.690279,00002.664110,00002.704229,00003.312911,00002.827602,00002.065597,-00000.725399,00000.044375,-00000.254894,00000.051993,-00000.037920,-00000.022379
0000000001201,00002.583500,00001.896144,00001.833531,00002.676105,00002.689830,00002.662952,00002.703816,00003.313052,00002.827421,00002.064419,-00000.730835,00000.049684,-00000.252213,00000.053633,-00000.037645,-00000.021812
0000000001202,00002.580301,00001.895138,00001.832859,00002.673701,00002.689669,00002.661587,00002.703722,00003.312954,00002.827252,00002.063189,-00000.736165,00000.055191,-00000.249280,00000.055508,-00000.037361,-00000.021228
0000000001203,00002.576638,00001.894263,00001.832254,00002.671436,00002.689288,00002.660238,00002.703733,00003.312711,00002.827460,00002.061823,-00000.741882,00000.062612,-00000.245909,00000.057267,-00000.036401,-00000.020745
0000000001204,00002.572827,00001.893044,00001.831682,00002.669027,00002.688788,00002.658714,00002.703653,00003.312265,00002.827317,00002.060413,-00000.747508,00000.069840,-00000.241961,00000.058863,-00000.035433,-00000.020248
0000000001205,00002.569709,00001.891937,00001.831167,00002.666736,00002.687737,00002.657566,00002.702937,00003.312421,00002.827131,00002.059251,-00000.753099,00000.077246,-00000.238003,00000.060724,-00000.034616,-00000.019837
0000000001206,00002.566101,00001.890899,00001.830680,00002.664684,00002.686949,00002.655905,00002.702506,00003.311678,00002.826646,00002.057325,-00000.758615,00000.084125,-00000.234279,00000.062808,-00000.033792,-00000.019414
0000000001207,00002.563084,00001.889594,00001.830242,00002.662371,00002.686417,00002.654928,00002.701896,00003.311811,00002.826125,00002.056335,-00000.764100,00000.090067,-00000.231273,00000.064755,-00000.033459,-00000.019427
0000000001208,00002.560738,00001.888710,00001.830190,00002.660625,00002.686109,00002.654240,00002.701530,00003.311905,00002.825713,00002.055421,-00000.769158,00000.095197,-00000.228465,00000.066529,-00000.033121,-00000.019429
0000000001209,00002.558169,00001.887962,00001.829817,00002.659381,00002.685657,00002.653407,00002.701373,00003.311655,00002.825632,00002.054578,-00000.773828,00000.099893,-00000.225906,00000.068186,-00000.033200,-00000.019441
0000000001210,00002.555810,00001.887210,00001.829410,00002.657895,00002.685031,00002.652459,00002.701061,00003.311372,00002.825643,00002.053438,-00000.777771,00000.104260,-00000.223516,00000.069334,-00000.033638,-00000.019080
0000000001211,00002.553986,00001.886210,00001.829455,00002.656473,00002.684646,00002.651751,00002.700565,00003.311522,00002.825212,00002.052358,-00000.781021,00000.108257,-00000.221700,00000.070382,-00000.034068,-00000.018726
0000000001212,00002.551977,00001.885569,00001.828746,00002.655571,00002.683751,00002.650943,00002.699937,00003.310918,00002.824859,00002.051386,-00000.783652,00000.111250,-00000.220391,00000.071359,-00000.034078,-00000.018419
0000000001213,00002.550425,00001.885081,00001.828421,00002.654723,00002.683423,00002.650340,00002.699878,00003.311046,00002.824854,00002.050830,-00000.785331,00000.113927,-00000.219208,00000.071888,-00000.033718,-00000.017756
0000000001214,00002.548714,00001.884536,00001.828180,00002.653955,00002.683387,00002.649653,00002.700068,00003.310895,00002.824917,00002.050003,-00000.786119,00000.116112,-00000.218456,00000.072357,-00000.033001,-00000.017132
0000000001215,00002.547030,00001.884483,00001.828267,00002.653596,00002.683470,00002.648776,00002.700380,00003.310641,00002.824913,00002.049529,-00000.786097,00000.118028,-00000.218175,00000.072445,-00000.031970,-00000.016929
0000000001216,00002.545574,00001.884019,00001.828425,00002.653305,00002.683077,00002.648191,00002.700180,00003.310149,00002.824966,00002.048825,-00000.785317,00000.119888,-00000.218260,00000.072482,-00000.030996,-00000.016761
0000000001217,00002.544866,00001.883611,00001.829224,00002.653000,00002.683148,00002.647808,00002.700083,00003.310296,00002.824600,00002.048422,-00000.783847,00000.121157,-00000.218746,00000.072556,-00000.030481,-00000.016226
0000000001218,00002.543989,00001.883216,00001.830084,00002.653114,00002.682813,00002.647673,00002.699912,00003.310240,00002.824645,00002.047823,-00000.782095,00000.122377,-00000.219545,00000.072587,-00000.030015,-00000.015720
0000000001219,00002.543386,00001.882868,00001.830764,00002.653217,00002.682510,00002.647347,00002.699830,00003.310365,00002.824696,00002.047479,-00000.780117,00000.123457,-00000.220321,00000.072651,-00000.029576,-00000.015264
0000000001220,00002.542640,00001.882895,00001.831496,00002.653315,00002.682588,00002.646869,00002.699684,00003.310317,00002.825097,00002.046969,-00000.778263,00000.124133,-00000.221364,00000.072315,-00000.028817,-00000.014833
0000000001221,00002.541764,00001.882599,00001.832438,00002.653403,00002.682693,00002.646228,00002.699977,00003.310061,00002.825504,00002.046677,-00000.776580,00000.124690,-00000.222388,00000.072006,-00000.028081,-00000.014446
0000000001222,00002.541128,00001.882622,00001.834513,00002.653849,00002.682759,00002.645821,00002.700216,00003.310020,00002.825845,00002.046242,-00000.775001,00000.125628,-00000.223275,00000.071720,-00000.027434,-00000.014442
0000000001223,00002.540382,00001.882733,00001.837129,00002.654649,00002.682849,00002.645639,00002.700465,00003.309802,00002.826191,00002.045994,-00000.773931,00000.126828,-00000.224147,00000.071457,-00000.027170,-00000.014474
0000000001224,00002.540205,00001.882389,00001.839983,00002.655391,00002.682905,00002.645655,00002.700305,00003.309768,00002.826119,00002.045987,-00000.772950,00000.128352,-00000.224539,00000.071213,-00000.026983,-00000.014471
0000000001225,00002.539570,00001.882121,00001.842573,00002.655710,00002.682982,00002.645137,00002.700517,00003.309582,00002.826414,00002.045412,-00000.772039,00000.129736,-00000.224919,00000.070989,-00000.026395,-00000.014499
0000000001226,00002.539055,00001.881829,00001.845002,00002.655979,00002.683029,00002.644788,00002.700382,00003.309915,00002.826352,00002.045406,-00000.771204,00000.131034,-00000.225616,00000.070419,-00000.025873,-00000.014496
0000000001227,00002.538515,00001.881600,00001.847207,00002.656613,00002.683095,00002.644347,00002.700562,00003.309757,00002.826603,00002.045280,-00000.770065,00000.131849,-00000.226301,00000.069503,-00000.025372,-00000.014520
0000000001228,00002.538802,00001.881351,00001.849638,00002.657205,00002.683135,00002.644413,00002.700447,00003.310041,00002.826551,00002.045638,-00000.768629,00000.132591,-00000.226895,00000.068655,-00000.024565,-00000.014154
0000000001229,00002.538342,00001.881157,00001.851515,00002.658107,00002.683191,00002.644400,00002.700238,00003.310269,00002.826401,00002.045530,-00000.767297,00000.133648,-00000.227116,00000.067875,-00000.023776,-00000.013812
0000000001230,00002.538224,00001.880945,00001.853585,00002.658611,00002.683588,00002.644094,00002.700139,00003.310148,00002.825994,00002.045472,-00000.766074,00000.135368,-00000.226895,00000.067153,-00000.022726,-00000.013138
0000000001231,00002.537833,00001.880779,00001.855183,00002.659017,00002.683635,00002.644083,00002.699961,00003.310342,00002.825867,00002.045380,-00000.764940,00000.137356,-00000.226358,00000.066126,-00000.021692,-00000.012484
0000000001232,00002.537370,00001.880599,00001.856582,00002.659808,00002.683611,00002.644547,00002.700241,00003.310239,00002.826246,00002.045331,-00000.763899,00000.140271,-00000.224719,00000.064060,-00000.021523,-00000.011910
0000000001233,00002.537036,00001.880458,00001.857942,00002.660516,00002.683651,00002.644538,00002.700089,00003.310041,00002.826138,00002.045253,-00000.762934,00000.143052,-00000.222447,00000.061735,-00000.021369,-00000.010990
0000000001234,00002.536642,00001.879942,00001.859133,00002.660465,00002.683630,00002.644208,00002.699964,00003.310316,00002.825734,00002.045210,-00000.761685,00000.145171,-00000.221052,00000.058525,-00000.020862,-00000.009413
0000000001235,00002.536358,00001.880185,00001.860291,00002.661067,00002.683664,00002.644563,00002.700198,00003.310148,00002.826005,00002.045507,-00000.760500,00000.146813,-00000.220207,00000.055095,-00000.020368,-00000.007905
0000000001236,00002.536022,00001.880108,00001.861305,00002.661386,00002.684009,00002.644645,00002.700454,00003.310382,00002.826388,00002.045834,-00000.759799,00000.148617,-00000.219382,00000.051999,-00000.019937,-00000.006562
0000000001237,00002.535418,00001.879952,00001.862291,00002.661537,00002.684039,00002.644947,00002.700290,00003.310239,00002.826618,00002.045723,-00000.759517,00000.150377,-00000.218662,00000.049442,-00000.019516,-00000.005278
0000000001238,00002.535132,00001.879886,00001.863154,00002.662171,00002.683969,00002.645379,00002.700145,00003.310076,00002.826944,00002.045276,-00000.759283,00000.151913,-00000.217960,00000.047532,-00000.018786,-00000.004135
0000000001239,00002.534980,00001.879753,00001.863993,00002.662299,00002.683994,00002.645274,00002.700369,00003.309954,00002.826777,00002.045182,-00000.759405,00000.154137,-00000.216985,00000.046080,-00000.017702,-00000.003042
0000000001240,00002.535100,00001.879335,00001.865091,00002.662476,00002.683935,00002.645642,00002.700246,00003.310178,00002.826691,00002.045164,-00000.759569,00000.156533,-00000.216024,00000.045180,-00000.016718,-00000.002432
0000000001241,00002.535333,00001.878859,00001.865805,00002.662585,00002.683957,00002.645915,00002.700073,00003.310437,00002.826549,00002.045447,-00000.760036,00000.158789,-00000.215194,00000.044307,-00000.015796,-00000.002227
0000000001242,00002.535072,00001.878503,00001.866377,00002.662736,00002.683907,00002.646228,00002.699968,00003.310264,00002.826839,00002.045069,-00000.760901,00000.160829,-00000.214376,00000.043178,-00000.015321,-00000.001708
0000000001243,00002.534908,00001.878098,00001.866985,00002.662466,00002.683925,00002.646097,00002.699821,00003.310485,00002.826356,00002.044947,-00000.762024,00000.162387,-00000.214032,00000.041710,-00000.014898,-00000.001533
0000000001244,00002.534686,00001.877795,00001.867109,00002.662594,00002.683519,00002.646364,00002.699732,00003.310338,00002.826240,00002.044625,-00000.763123,00000.163398,-00000.214061,00000.040386,-00000.014494,-00000.001454
0000000001245,00002.534547,00001.877812,00001.867626,00002.663090,00002.683534,00002.646616,00002.699970,00003.310526,00002.826554,00002.044521,-00000.764805,00000.164361,-00000.214131,00000.039498,-00000.014134,-00000.001305
0000000001246,00002.534357,00001.877554,00001.868095,00002.662836,00002.683915,00002.646480,00002.699894,00003.311126,00002.826455,00002.044609,-00000.766466,00000.165221,-00000.214156,00000.038734,-00000.013790,-00000.001600
0000000001247,00002.534601,00001.877207,00001.868535,00002.662895,00002.683928,00002.646694,00002.699733,00003.311649,00002.826359,00002.044521,-00000.768260,00000.166042,-00000.214215,00000.038341,-00000.013483,-00000.001837
0000000001248,00002.534440,00001.876987,00001.868571,00002.663042,00002.683526,00002.646579,00002.699306,00003.311435,00002.826275,00002.044234,-00000.770400,00000.166774,-00000.214237,00000.038053,-00000.013190,-00000.002088
0000000001249,00002.534648,00001.876691,00001.868584,00002.663093,00002.683537,00002.646761,00002.699169,00003.311517,00002.826194,00002.044158,-00000.772653,00000.167472,-00000.214287,00000.037719,-00000.012929,-00000.002289
0000000001250,00002.534874,00001.876504,00001.868614,00002.663218,00002.683195,00002.647026,00002.699168,00003.311697,00002.826123,00002.044277,-00000.774838,00000.168096,-00000.214306,00000.037474,-00000.012317,-00000.002503
0000000001251,00002.535051,00001.875889,00001.868625,00002.662898,00002.683205,00002.646818,00002.699052,00003.311767,00002.826053,00002.044213,-00000.777119,00000.168690,-00000.214349,00000.037552,-00000.011732,-00000.003037
0000000001252,00002.535243,00001.875367,00001.868651,00002.662642,00002.683276,00002.646681,00002.698688,00003.312284,00002.825992,00002.044313,-00000.779341,00000.168858,-00000.214364,00000.037706,-00000.011211,-00000.003219
0000000001253,00002.535030,00001.875207,00001.868297,00002.662732,00002.683284,00002.646867,00002.698589,00003.312343,00002.825933,00002.043896,-00000.781283,00000.169002,-00000.214401,00000.038135,-00000.010713,-00000.003311
0000000001254,00002.535194,00001.875125,00001.868319,00002.662877,00002.683346,00002.646750,00002.698642,00003.312783,00002.825882,00002.044344,-00000.782812,00000.169507,-00000.214414,00000.038630,-00000.009907,-00000.003466
0000000001255,00002.535153,00001.874919,00001.868399,00002.662714,00002.683042,00002.646808,00002.698603,00003.312845,00002.825424,00002.043645,-00000.783227,00000.169334,-00000.215182,00000.039053,-00000.008434,-00000.003676
0000000001256,00002.535308,00001.874803,00001.868814,00002.662780,00002.683101,00002.646943,00002.698531,00003.312888,00002.825382,00002.043343,-00000.782257,00000.168713,-00000.215880,00000.039001,-00000.007764,-00000.003743
0000000001257,00002.534755,00001.874744,00001.868830,00002.662939,00002.682783,00002.646858,00002.698570,00003.312535,00002.825761,00002.043050,-00000.781041,00000.168099,-00000.216561,00000.039413,-00000.007180,-00000.003492
0000000001258,00002.534778,00001.874594,00001.869198,00002.663855,00002.682925,00002.646901,00002.698904,00003.312271,00002.826047,00002.042544,-00000.778454,00000.166684,-00000.218098,00000.039720,-00000.005386,-00000.002973
0000000001259,00002.534799,00001.874467,00001.869510,00002.664998,00002.683046,00002.646574,00002.698826,00003.312046,00002.825928,00002.042475,-00000.775164,00000.165117,-00000.219770,00000.039255,-00000.004586,-00000.002531
0000000001260,00002.534894,00001.874341,00001.870183,00002.665973,00002.683446,00002.646711,00002.698728,00003.312490,00002.825848,00002.042597,-00000.773322,00000.164424,-00000.220509,00000.039178,-00000.004218,-00000.002309
0000000001261,00002.535260,00001.874252,00001.870712,00002.669704,00002.683490,00002.647501,00002.699039,00003.312232,00002.826121,00002.042521,-00000.769344,00000.162830,-00000.222548,00000.039157,-00000.002865,-00000.001966
0000000001262,00002.535556,00001.874267,00001.871346,00002.671246,00002.683546,00002.647766,00002.699012,00003.312001,00002.826050,00002.042730,-00000.767238,00000.161921,-00000.223438,00000.039195,-00000.002289,-00000.001834
0000000001263,00002.536187,00001.874551,00001.873153,00002.674555,00002.683575,00002.648036,00002.699281,00003.312179,00002.826293,00002.042634,-00000.764164,00000.160337,-00000.225041,00000.039171,-00000.001586,-00000.002287
0000000001264,00002.536146,00001.874473,00001.873923,00002.676308,00002.683559,00002.648075,00002.699220,00003.312190,00002.826606,00002.042763,-00000.763128,00000.159647,-00000.225760,00000.039123,-00000.001459,-00000.002459
0000000001265,00002.536326,00001.874364,00001.876072,00002.679590,00002.683949,00002.648662,00002.699095,00003.311977,00002.826767,00002.042299,-00000.761391,00000.158763,-00000.227743,00000.038385,-00000.000516,-00000.002819
0000000001266,00002.536841,00001.874271,00001.878628,00002.683110,00002.684281,00002.649162,00002.699352,00003.312159,00002.827267,00002.042267,-00000.758824,00000.158011,-00000.229794,00000.037756,00000.000286,-00000.002763
0000000001267,00002.536997,00001.874603,00001.879756,00002.685178,00002.684573,00002.649663,00002.700024,00003.312262,00002.827861,00002.042060,-00000.756807,00000.157534,-00000.230888,00000.037513,00000.000991,-00000.002555
0000000001268,00002.537050,00001.874837,00001.881764,00002.688955,00002.684812,00002.650377,00002.700505,00003.312038,00002.828924,00002.042063,-00000.752745,00000.156239,-00000.233560,00000.036289,00000.001569,-00000.002175
0000000001269,00002.537346,00001.875105,00001.882655,00002.690726,00002.685167,00002.651038,00002.700736,00003.312137,00002.829397,00002.042270,-00000.751057,00000.155428,-00000.234370,00000.035731,00000.001859,-00000.002002
0000000001270,00002.538073,00001.874902,00001.884232,00002.694403,00002.685317,00002.652273,00002.701111,00003.312658,00002.829506,00002.042605,-00000.748213,00000.154447,-00000.236161,00000.035134,00000.002308,-00000.002067
0000000001271,00002.538477,00001.875206,00001.884928,00002.695888,00002.685915,00002.652483,00002.701263,00003.312358,00002.829927,00002.042377,-00000.747378,00000.154252,-00000.236736,00000.034721,00000.002480,-00000.002248
0000000001272,00002.538673,00001.875714,00001.886166,00002.699161,00002.686680,00002.654228,00002.701923,00003.312846,00002.831045,00002.043422,-00000.746532,00000.153808,-00000.237813,00000.033549,00000.002837,-00000.002639
0000000001273,00002.539203,00001.876146,00001.887221,00002.702673,00002.687331,00002.655715,00002.702121,00003.312173,00002.832359,00002.043586,-00000.745086,00000.152704,-00000.238729,00000.032188,00000.003504,-00000.002972
0000000001274,00002.539358,00001.875963,00001.887689,00002.703812,00002.687517,00002.656279,00002.701880,00003.312557,00002.832547,00002.043648,-00000.744416,00000.152556,-00000.238792,00000.031910,00000.004019,-00000.003144
0000000001275,00002.539423,00001.875995,00001.888154,00002.706269,00002.687681,00002.657097,00002.702085,00003.312290,00002.833276,00002.043778,-00000.743648,00000.152002,-00000.239200,00000.031156,00000.004510,-00000.002677
0000000001276,00002.539729,00001.875792,00001.888937,00002.706864,00002.688049,00002.657385,00002.702488,00003.312819,00002.833451,00002.044206,-00000.743116,00000.151583,-00000.239919,00000.030298,00000.004863,-00000.002463
0000000001277,00002.539376,00001.875124,00001.891393,00002.708505,00002.688134,00002.657314,00002.702240,00003.312513,00002.833682,00002.043891,-00000.742904,00000.150810,-00000.241248,00000.028695,00000.005591,-00000.002097
0000000001278,00002.539163,00001.875065,00001.892608,00002.708852,00002.688249,00002.657044,00002.702771,00003.312540,00002.834169,00002.043929,-00000.742800,00000.150456,-00000.242221,00000.027952,00000.005955,-00000.001940
0000000001279,00002.539619,00001.874142,00001.894882,00002.709835,00002.688304,00002.657386,00002.702481,00003.313001,00002.833931,00002.044743,-00000.742272,00000.149851,-00000.244296,00000.027061,00000.006883,-00000.002377
0000000001280,00002.539645,00001.873720,00001.896454,00002.710308,00002.689077,00002.657314,00002.702596,00003.313394,00002.834091,00002.045436,-00000.742185,00000.148973,-00000.244974,00000.025939,00000.007311,-00000.002749
0000000001281,00002.539845,00001.873713,00001.897352,00002.710859,00002.688992,00002.657828,00002.702585,00003.313348,00002.834143,00002.045693,-00000.742538,00000.148027,-00000.245260,00000.025489,00000.007134,-00000.002900
0000000001282,00002.540200,00001.873717,00001.898557,00002.711180,00002.689299,00002.657691,00002.702685,00003.313326,00002.833909,00002.045519,-00000.742775,00000.145243,-00000.245795,00000.024238,00000.006798,-00000.003194
0000000001283,00002.540721,00001.873725,00001.898515,00002.711672,00002.689314,00002.658181,00002.702416,00003.313703,00002.833980,00002.045856,-00000.742666,00000.143814,-00000.246043,00000.023446,00000.006279,-00000.003336
0000000001284,00002.541309,00001.873364,00001.898459,00002.712235,00002.689573,00002.659080,00002.702179,00003.313991,00002.834495,00002.046021,-00000.743609,00000.141294,-00000.246098,00000.021411,00000.006071,-00000.003928
0000000001285,00002.541378,00001.873777,00001.898441,00002.712721,00002.690201,00002.659126,00002.702588,00003.314272,00002.834937,00002.046225,-00000.744236,00000.139822,-00000.245912,00000.020198,00000.005961,-00000.004021
0000000001286,00002.541868,00001.873408,00001.898033,00002.713490,00002.689966,00002.660247,00002.702325,00003.313749,00002.835310,00002.046335,-00000.745671,00000.136444,-00000.246712,00000.017558,00000.005800,-00000.004149
0000000001287,00002.542648,00001.873458,00001.897686,00002.714146,00002.689766,00002.661564,00002.702464,00003.313668,00002.835627,00002.046065,-00000.746893,00000.133569,-00000.247394,00000.016035,00000.005664,-00000.004257
0000000001288,00002.543007,00001.873462,00001.897347,00002.714404,00002.690097,00002.662130,00002.702547,00003.313325,00002.835888,00002.046019,-00000.747646,00000.132610,-00000.247147,00000.015858,00000.005614,-00000.003930
0000000001289,00002.543312,00001.873499,00001.896664,00002.714704,00002.690321,00002.662685,00002.702582,00003.313235,00002.836261,00002.045836,-00000.747933,00000.131484,-00000.246886,00000.015465,00000.005547,-00000.003987
0000000001290,00002.544240,00001.873535,00001.895432,00002.714090,00002.690431,00002.662550,00002.702320,00003.313593,00002.836074,00002.045641,-00000.748093,00000.127896,-00000.247179,00000.014253,00000.005085,-00000.004120
0000000001291,00002.545031,00001.873928,00001.894020,00002.713931,00002.691250,00002.663162,00002.702460,00003.313535,00002.835915,00002.045474,-00000.750405,00000.123389,-00000.246340,00000.013948,00000.004692,-00000.004595
0000000001292,00002.544615,00001.874263,00001.891005,00002.711981,00002.691222,00002.663320,00002.702941,00003.312759,00002.836143,00002.045333,-00000.757091,00000.115925,-00000.246714,00000.012599,00000.003994,-00000.005001
0000000001293,00002.544038,00001.874165,00001.889306,00002.710133,00002.691435,00002.663340,00002.703333,00003.312810,00002.835639,00002.045717,-00000.761501,00000.111089,-00000.246800,00000.010831,00000.004061,-00000.004636
0000000001294,00002.543407,00001.874102,00001.886265,00002.706208,00002.691379,00002.663108,00002.703322,00003.312505,00002.835183,00002.046265,-00000.770164,00000.101826,-00000.248557,00000.006318,00000.003457,-00000.003221
0000000001295,00002.542979,00001.874119,00001.885271,00002.704516,00002.691540,00002.663259,00002.703700,00003.312572,00002.834796,00002.046870,-00000.774397,00000.098117,-00000.249735,00000.003959,00000.003203,-00000.002590
0000000001296,00002.542506,00001.873337,00001.883193,00002.702878,00002.691106,00002.663403,00002.703272,00003.312665,00002.834101,00002.047246,-00000.781143,00000.091508,-00000.251781,00000.000468,00000.002727,-00000.002204
0000000001297,00002.541740,00001.873759,00001.881062,00002.702209,00002.691099,00002.663525,00002.703633,00003.312382,00002.834236,00002.047930,-00000.786159,00000.085520,-00000.254249,-00000.001416,00000.002321,-00000.002965
0000000001298,00002.541352,00001.873700,00001.879761,00002.701486,00002.691257,00002.663535,00002.703923,00003.312046,00002.834280,00002.048038,-00000.788391,00000.082656,-00000.255676,-00000.001718,00000.002496,-00000.003175
0000000001299,00002.541483,00001.873706,00001.877414,00002.699936,00002.691228,00002.663275,00002.703825,00003.311855,00002.833663,00002.047878,-00000.790153,00000.077258,-00000.258653,-00000.003277,00000.002850,-00000.003429
0000000001300,00002.541984,00001.873754,00001.876360,00002.699865,00002.691397,00002.663771,00002.703839,00003.312352,00002.833776,00002.047609,-00000.790183,00000.074738,-00000.259843,-00000.004129,00000.002663,-00000.003855
0000000001301,00002.542021,00001.874477,00001.872342,00002.698919,00002.691710,00002.663112,00002.704478,00003.311753,00002.833959,00002.047513,-00000.790228,00000.071243,-00000.260749,-00000.004966,00000.002267,-00000.004733
0000000001302,00002.541999,00001.874749,00001.869054,00002.698836,00002.691853,00002.663173,00002.704703,00003.311862,00002.834086,00002.047317,-00000.789881,00000.069477,-00000.260912,-00000.005316,00000.001703,-00000.005171
0000000001303,00002.542034,00001.874962,00001.863583,00002.698042,00002.692098,00002.662603,00002.705214,00003.311698,00002.833860,00002.046539,-00000.787431,00000.066764,-00000.262022,-00000.006340,00000.000724,-00000.005854
0000000001304,00002.542080,00001.874892,00001.861363,00002.697373,00002.692203,00002.662746,00002.705123,00003.312205,00002.833522,00002.046381,-00000.785435,00000.065372,-00000.262539,-00000.007011,-00000.000063,-00000.006116
0000000001305,00002.542103,00001.874720,00001.856673,00002.696434,00002.692396,00002.661878,00002.705209,00003.311990,00002.833380,00002.046105,-00000.779293,00000.062907,-00000.264132,-00000.008146,-00000.001505,-00000.007021
0000000001306,00002.542452,00001.874625,00001.854961,00002.696174,00002.692121,00002.662015,00002.704676,00003.312421,00002.833195,00002.045984,-00000.774878,00000.061455,-00000.265584,-00000.008987,-00000.002162,-00000.007291
0000000001307,00002.542420,00001.874494,00001.851586,00002.695414,00002.691601,00002.661617,00002.704465,00003.312174,00002.833102,00002.045041,-00000.764138,00000.058847,-00000.269264,-00000.010190,-00000.003292,-00000.006933
0000000001308,00002.542755,00001.874744,00001.849075,00002.695129,00002.691157,00002.661642,00002.703923,00003.311601,00002.832659,00002.044238,-00000.753181,00000.056626,-00000.272034,-00000.011215,-00000.004253,-00000.006627
0000000001309,00002.544129,00001.874595,00001.849840,00002.694887,00002.691143,00002.661663,00002.703824,00003.312564,00002.832646,00002.044281,-00000.742765,00000.054736,-00000.275118,-00000.012449,-00000.005798,-00000.006730
0000000001310,00002.544806,00001.874563,00001.850155,00002.695180,00002.690966,00002.661926,00002.703796,00003.312665,00002.832824,00002.044295,-00000.738896,00000.054253,-00000.276850,-00000.013019,-00000.006096,-00000.005811
0000000001311,00002.545661,00001.874467,00001.850492,00002.695043,00002.691131,00002.662044,00002.703740,00003.313022,00002.832634,00002.044679,-00000.735712,00000.053490,-00000.278469,-00000.013500,-00000.006387,-00000.004278
0000000001312,00002.546965,00001.874359,00001.851772,00002.694451,00002.691483,00002.662005,00002.704031,00003.313411,00002.832261,00002.045744,-00000.730070,00000.053155,-00000.281684,-00000.014032,-00000.006525,-00000.000377
0000000001313,00002.548076,00001.874630,00001.854313,00002.694672,00002.691783,00002.662335,00002.704279,00003.313742,00002.832306,00002.046651,-00000.726356,00000.053595,-00000.283333,-00000.013034,-00000.005555,00000.002219
0000000001314,00002.548803,00001.874610,00001.855163,00002.694636,00002.691937,00002.662543,00002.704262,00003.314113,00002.832153,00002.046869,-00000.724904,00000.053968,-00000.284092,-00000.012405,-00000.005530,00000.003266
0000000001315,00002.549640,00001.874844,00001.856837,00002.694467,00002.691806,00002.662430,00002.703750,00003.313615,00002.832215,00002.047246,-00000.723046,00000.054650,-00000.285383,-00000.010924,-00000.006159,00000.003868
0000000001316,00002.549772,00001.875110,00001.857283,00002.694712,00002.691947,00002.662492,00002.704052,00003.313539,00002.832432,00002.047408,-00000.722571,00000.055323,-00000.285206,-00000.008975,-00000.006403,00000.003515
0000000001317,00002.550102,00001.874906,00001.855739,00002.694169,00002.691815,00002.662023,00002.703934,00003.312763,00002.832452,00002.047342,-00000.723600,00000.056529,-00000.283428,-00000.004738,-00000.006177,00000.004081
0000000001318,00002.551109,00001.874370,00001.852611,00002.693707,00002.691340,00002.662351,00002.703471,00003.312828,00002.832106,00002.047648,-00000.724839,00000.057556,-00000.282641,-00000.001857,-00000.005984,00000.005651
0000000001319,00002.551576,00001.874321,00001.852339,00002.693688,00002.691520,00002.662545,00002.703462,00003.312884,00002.832304,00002.047446,-00000.725397,00000.058015,-00000.281934,-00000.000560,-00000.005932,00000.006370
0000000001320,00002.552001,00001.874234,00001.849354,00002.693660,00002.691452,00002.662431,00002.703432,00003.312205,00002.832706,00002.047374,-00000.727094,00000.058095,-00000.280643,00000.002063,-00000.006138,00000.007237
0000000001321,00002.552750,00001.874196,00001.848245,00002.693287,00002.691626,00002.662503,00002.703413,00003.312259,00002.832542,00002.047514,-00000.727825,00000.057723,-00000.280057,00000.002993,-00000.006406,00000.007399
0000000001322,00002.554451,00001.874128,00001.845868,00002.693319,00002.691179,00002.662759,00002.703390,00003.312036,00002.832545,00002.047069,-00000.728072,00000.056032,-00000.280496,00000.004362,-00000.007630,00000.007387
0000000001323,00002.557714,00001.874070,00001.844571,00002.693346,00002.691887,00002.662977,00002.703733,00003.312572,00002.832186,00002.047779,-00000.726469,00000.053142,-00000.281233,00000.005890,-00000.007946,00000.006652
0000000001324,00002.559248,00001.874407,00001.843425,00002.693336,00002.692027,00002.662755,00002.704091,00003.312632,00002.832343,00002.047579,-00000.725017,00000.051692,-00000.281751,00000.006571,-00000.008097,00000.006134
0000000001325,00002.562160,00001.874671,00001.841765,00002.694086,00002.692246,00002.662973,00002.704330,00003.312354,00002.833102,00002.047125,-00000.722055,00000.049085,-00000.283390,00000.007045,-00000.008344,00000.005222
0000000001326,00002.563890,00001.874597,00001.841237,00002.694423,00002.691968,00002.663374,00002.704274,00003.312436,00002.833271,00002.047245,-00000.720168,00000.047553,-00000.284464,00000.007264,-00000.008445,00000.004821
