0000000000901,00002.543945,00001.860352,00002.094727,00002.744141,00002.680664,00002.646484,00002.705078,00003.330078,00002.778320,00002.050781,-00000.297852,00000.083008,-00000.341797,00000.068359,-00000.014648,-00000.014648
0000000000902,00002.543945,00001.865234,00002.094727,00002.744141,00002.685547,00002.646484,00002.705078,00003.330078,00002.778320,00002.050781,-00000.297852,00000.083008,-00000.341797,00000.068359,-00000.014648,-00000.019531
0000000000903,00002.543945,00001.860352,00002.094727,00002.739258,00002.680664,00002.646484,00002.700195,00003.334961,00002.773438,00002.050781,-00000.297852,00000.083008,-00000.341797,00000.073242,-00000.009766,-00000.019531
0000000000904,00002.539063,00001.860352,00002.094727,00002.734375,00002.685547,00002.641602,00002.705078,00003.330078,00002.773438,00002.050781,-00000.297852,00000.078125,-00000.341797,00000.068359,-00000.014648,-00000.019531
0000000000905,00002.543945,00001.865234,00002.094727,00002.749023,00002.685547,00002.646484,00002.705078,00003.334961,00002.778320,00002.050781,-00000.297852,00000.078125,-00000.341797,00000.068359,-00000.014648,-00000.019531
0000000000906,00002.543945,00001.865234,00002.094727,00002.753906,00002.685547,00002.646484,00002.705078,00003.330078,00002.778320,00002.050781,-00000.297852,00000.078125,-00000.341797,00000.068359,-00000.009766,-00000.019531
0000000000907,00002.543945,00001.860352,00002.094727,00002.749023,00002.690430,00002.651367,00002.705078,00003.334961,00002.773438,00002.055664,-00000.297852,00000.078125,-00000.346680,00000.068359,-00000.014648,-00000.019531
0000000000908,00002.548828,00001.860352,00002.094727,00002.758789,00002.685547,00002.651367,00002.705078,00003.330078,00002.778320,00002.050781,-00000.297852,00000.078125,-00000.341797,00000.068359,-00000.009766,-00000.019531
0000000000909,00002.548828,00001.860352,00002.104492,00002.749023,00002.690430,00002.651367,00002.705078,00003.334961,00002.778320,00002.055664,-00000.297852,00000.083008,-00000.341797,00000.073242,-00000.009766,-00000.019531
0000000000910,00002.543945,00001.860352,00002.124023,00002.753906,00002.685547,00002.651367,00002.700195,00003.330078,00002.778320,00002.050781,-00000.297852,00000.083008,-00000.341797,00000.073242,-00000.009766,-00000.019531
0000000000911,00002.543945,00001.860352,00002.124023,00002.758789,00002.685547,00002.651367,00002.705078,00003.330078,00002.783203,00002.050781,-00000.297852,00000.083008,-00000.336914,00000.073242,-00000.009766,-00000.019531
0000000000912,00002.543945,00001.860352,00002.128906,00002.749023,00002.690430,00002.651367,00002.705078,00003.330078,00002.778320,00002.055664,-00000.297852,00000.083008,-00000.336914,00000.078125,-00000.009766,-00000.019531
0000000000913,00002.543945,00001.860352,00002.114258,00002.749023,00002.690430,00002.651367,00002.709961,00003.334961,00002.778320,00002.050781,-00000.297852,00000.083008,-00000.341797,00000.078125,-00000.009766,-00000.024414
0000000000914,00002.543945,00001.860352,00002.094727,00002.749023,00002.690430,00002.651367,00002.705078,00003.334961,00002.773438,00002.050781,-00000.297852,00000.083008,-00000.336914,00000.078125,-00000.009766,-00000.019531
0000000000915,00002.543945,00001.865234,00002.094727,00002.753906,00002.690430,00002.651367,00002.705078,00003.330078,00002.783203,00002.055664,-00000.297852,00000.083008,-00000.336914,00000.078125,-00000.009766,-00000.019531
0000000000916,00002.548828,00001.860352,00002.094727,00002.749023,00002.685547,00002.651367,00002.700195,00003.334961,00002.778320,00002.055664,-00000.297852,00000.078125,-00000.341797,00000.078125,-00000.009766,-00000.019531
0000000000917,00002.543945,00001.860352,00002.094727,00002.749023,00002.690430,00002.646484,00002.705078,00003.334961,00002.778320,00002.055664,-00000.297852,00000.083008,-00000.336914,00000.073242,-00000.014648,-00000.019531
0000000000918,00002.548828,00001.860352,00002.094727,00002.749023,00002.685547,00002.651367,00002.700195,00003.334961,00002.778320,00002.055664,-00000.292969,00000.083008,-00000.336914,00000.073242,-00000.014648,-00000.019531
0000000000919,00002.539063,00001.860352,00002.094727,00002.749023,00002.685547,00002.646484,00002.705078,00003.330078,00002.783203,00002.055664,-00000.292969,00000.087891,-00000.332031,00000.078125,-00000.014648,-00000.019531
0000000000920,00002.543945,00001.860352,00002.094727,00002.753906,00002.680664,00002.651367,00002.705078,00003.330078,00002.783203,00002.055664,-00000.292969,00000.087891,-00000.332031,00000.083008,-00000.009766,-00000.019531
0000000000921,00002.543945,00001.855469,00002.094727,00002.744141,00002.685547,00002.651367,00002.700195,00003.334961,00002.778320,00002.055664,-00000.297852,00000.083008,-00000.332031,00000.078125,-00000.009766,-00000.019531
0000000000922,00002.539063,00001.860352,00002.089844,00002.744141,00002.680664,00002.641602,00002.705078,00003.325195,00002.778320,00002.050781,-00000.297852,00000.083008,-00000.336914,00000.078125,-00000.009766,-00000.019531
0000000000923,00002.543945,00001.860352,00002.089844,00002.749023,00002.680664,00002.646484,00002.700195,00003.330078,00002.778320,00002.050781,-00000.297852,00000.078125,-00000.336914,00000.078125,-00000.009766,-00000.019531
0000000000924,00002.543945,00001.860352,00002.089844,00002.749023,00002.685547,00002.646484,00002.705078,00003.330078,00002.783203,00002.055664,-00000.297852,00000.083008,-00000.336914,00000.078125,-00000.014648,-00000.019531
0000000000925,00002.543945,00001.860352,00002.094727,00002.753906,00002.685547,00002.651367,00002.705078,00003.325195,00002.783203,00002.055664,-00000.297852,00000.083008,-00000.336914,00000.073242,-00000.019531,-00000.019531
0000000000926,00002.543945,00001.855469,00002.099609,00002.749023,00002.685547,00002.651367,00002.700195,00003.334961,00002.778320,00002.060547,-00000.297852,00000.083008,-00000.341797,00000.073242,-00000.019531,-00000.024414
0000000000927,00002.539063,00001.860352,00002.089844,00002.749023,00002.680664,00002.646484,00002.700195,00003.325195,00002.778320,00002.055664,-00000.297852,00000.078125,-00000.341797,00000.073242,-00000.019531,-00000.024414
0000000000928,00002.539063,00001.860352,00002.094727,00002.753906,00002.685547,00002.646484,00002.709961,00003.330078,00002.783203,00002.060547,-00000.297852,00000.078125,-00000.341797,00000.073242,-00000.014648,-00000.024414
0000000000929,00002.543945,00001.860352,00002.094727,00002.758789,00002.685547,00002.656250,00002.709961,00003.334961,00002.783203,00002.060547,-00000.297852,00000.078125,-00000.341797,00000.073242,-00000.014648,-00000.024414
0000000000930,00002.543945,00001.860352,00002.099609,00002.749023,00002.685547,00002.646484,00002.705078,00003.330078,00002.778320,00002.060547,-00000.297852,00000.078125,-00000.341797,00000.073242,-00000.014648,-00000.019531
0000000000931,00002.543945,00001.860352,00002.099609,00002.749023,00002.685547,00002.651367,00002.700195,00003.334961,00002.778320,00002.065430,-00000.297852,00000.078125,-00000.336914,00000.073242,-00000.014648,-00000.019531
0000000000932,00002.543945,00001.860352,00002.094727,00002.749023,00002.680664,00002.651367,00002.700195,00003.330078,00002.778320,00002.060547,-00000.297852,00000.078125,-00000.341797,00000.073242,-00000.014648,-00000.019531
0000000000933,00002.543945,00001.860352,00002.099609,00002.749023,00002.690430,00002.646484,00002.705078,00003.334961,00002.778320,00002.065430,-00000.297852,00000.078125,-00000.341797,00000.073242,-00000.014648,-00000.019531
0000000000934,00002.548828,00001.860352,00002.099609,00002.749023,00002.685547,00002.651367,00002.700195,00003.334961,00002.778320,00002.065430,-00000.297852,00000.078125,-00000.346680,00000.068359,-00000.014648,-00000.019531
0000000000935,00002.543945,00001.860352,00002.099609,00002.749023,00002.680664,00002.651367,00002.700195,00003.330078,00002.778320,00002.060547,-00000.297852,00000.078125,-00000.346680,00000.073242,-00000.014648,-00000.019531
0000000000936,00002.543945,00001.860352,00002.094727,00002.749023,00002.685547,00002.641602,00002.705078,00003.330078,00002.778320,00002.060547,-00000.297852,00000.078125,-00000.346680,00000.068359,-00000.014648,-00000.024414
0000000000937,00002.548828,00001.860352,00002.099609,00002.749023,00002.685547,00002.646484,00002.705078,00003.334961,00002.778320,00002.065430,-00000.297852,00000.078125,-00000.346680,00000.073242,-00000.014648,-00000.024414
0000000000938,00002.548828,00001.860352,00002.099609,00002.749023,00002.690430,00002.646484,00002.709961,00003.334961,00002.778320,00002.070313,-00000.297852,00000.073242,-00000.346680,00000.078125,-00000.014648,-00000.019531
0000000000939,00002.543945,00001.860352,00002.099609,00002.753906,00002.685547,00002.651367,00002.705078,00003.330078,00002.783203,00002.065430,-00000.297852,00000.078125,-00000.346680,00000.078125,-00000.014648,-00000.019531
0000000000940,00002.543945,00001.860352,00002.094727,00002.749023,00002.685547,00002.651367,00002.705078,00003.330078,00002.783203,00002.060547,-00000.297852,00000.078125,-00000.346680,00000.073242,-00000.014648,-00000.019531
0000000000941,00002.548828,00001.860352,00002.099609,00002.753906,00002.680664,00002.651367,00002.700195,00003.334961,00002.778320,00002.060547,-00000.297852,00000.078125,-00000.341797,00000.073242,-00000.009766,-00000.019531
0000000000942,00002.543945,00001.860352,00002.094727,00002.753906,00002.685547,00002.651367,00002.705078,00003.334961,00002.783203,00002.060547,-00000.302734,00000.078125,-00000.346680,00000.073242,-00000.014648,-00000.019531
0000000000943,00002.543945,00001.860352,00002.094727,00002.753906,00002.680664,00002.651367,00002.700195,00003.334961,00002.783203,00002.060547,-00000.297852,00000.078125,-00000.346680,00000.073242,-00000.009766,-00000.019531
0000000000944,00002.548828,00001.860352,00002.128906,00002.749023,00002.685547,00002.646484,00002.705078,00003.330078,00002.773438,00002.065430,-00000.297852,00000.073242,-00000.341797,00000.073242,-00000.014648,-00000.019531
0000000000945,00002.543945,00001.860352,00002.128906,00002.749023,00002.690430,00002.646484,00002.705078,00003.334961,00002.778320,00002.065430,-00000.297852,00000.078125,-00000.341797,00000.073242,-00000.019531,-00000.019531
0000000000946,00002.543945,00001.860352,00002.124023,00002.753906,00002.685547,00002.651367,00002.700195,00003.330078,00002.783203,00002.065430,-00000.297852,00000.078125,-00000.341797,00000.073242,-00000.019531,-00000.019531
0000000000947,00002.543945,00001.865234,00002.128906,00002.753906,00002.690430,00002.646484,00002.709961,00003.334961,00002.783203,00002.070313,-00000.297852,00000.078125,-00000.341797,00000.073242,-00000.019531,-00000.024414
0000000000948,00002.543945,00001.865234,00002.124023,00002.753906,00002.685547,00002.646484,00002.705078,00003.330078,00002.783203,00002.065430,-00000.297852,00000.078125,-00000.346680,00000.073242,-00000.014648,-00000.024414
0000000000949,00002.548828,00001.860352,00002.128906,00002.749023,00002.690430,00002.651367,00002.705078,00003.334961,00002.778320,00002.070313,-00000.297852,00000.073242,-00000.346680,00000.073242,-00000.014648,-00000.024414
0000000000950,00002.548828,00001.865234,00002.128906,00002.753906,00002.690430,00002.651367,00002.709961,00003.330078,00002.788086,00002.065430,-00000.297852,00000.073242,-00000.346680,00000.073242,-00000.014648,-00000.029297
0000000000951,00002.543945,00001.860352,00002.124023,00002.753906,00002.685547,00002.646484,00002.705078,00003.330078,00002.783203,00002.070313,-00000.297852,00000.073242,-00000.346680,00000.073242,-00000.014648,-00000.024414
0000000000952,00002.553711,00001.860352,00002.128906,00002.753906,00002.685547,00002.656250,00002.700195,00003.339844,00002.783203,00002.065430,-00000.297852,00000.078125,-00000.341797,00000.073242,-00000.014648,-00000.024414
0000000000953,00002.553711,00001.860352,00002.128906,00002.749023,00002.690430,00002.651367,00002.705078,00003.334961,00002.778320,00002.070313,-00000.297852,00000.073242,-00000.346680,00000.073242,-00000.014648,-00000.024414
0000000000954,00002.548828,00001.860352,00002.128906,00002.749023,00002.685547,00002.646484,00002.705078,00003.330078,00002.778320,00002.065430,-00000.297852,00000.073242,-00000.346680,00000.073242,-00000.014648,-00000.024414
0000000000955,00002.553711,00001.855469,00002.128906,00002.749023,00002.685547,00002.646484,00002.700195,00003.334961,00002.778320,00002.070313,-00000.297852,00000.073242,-00000.346680,00000.073242,-00000.014648,-00000.024414
0000000000956,00002.548828,00001.865234,00002.109375,00002.753906,00002.685547,00002.646484,00002.705078,00003.330078,00002.783203,00002.065430,-00000.297852,00000.073242,-00000.346680,00000.073242,-00000.014648,-00000.024414
0000000000957,00002.548828,00001.860352,00002.109375,00002.744141,00002.685547,00002.646484,00002.705078,00003.334961,00002.778320,00002.065430,-00000.302734,00000.073242,-00000.351563,00000.073242,-00000.014648,-00000.024414
0000000000958,00002.543945,00001.860352,00002.104492,00002.749023,00002.680664,00002.651367,00002.700195,00003.330078,00002.778320,00002.060547,-00000.297852,00000.073242,-00000.346680,00000.073242,-00000.019531,-00000.024414
0000000000959,00002.548828,00001.855469,00002.104492,00002.744141,00002.685547,00002.651367,00002.700195,00003.334961,00002.773438,00002.070313,-00000.297852,00000.073242,-00000.346680,00000.073242,-00000.014648,-00000.024414
0000000000960,00002.548828,00001.855469,00002.109375,00002.744141,00002.685547,00002.651367,00002.700195,00003.334961,00002.778320,00002.065430,-00000.297852,00000.073242,-00000.341797,00000.073242,-00000.014648,-00000.019531
0000000000961,00002.548828,00001.855469,00002.104492,00002.749023,00002.685547,00002.651367,00002.700195,00003.334961,00002.778320,00002.065430,-00000.297852,00000.073242,-00000.346680,00000.073242,-00000.014648,-00000.024414
0000000000962,00002.548828,00001.860352,00002.094727,00002.749023,00002.680664,00002.651367,00002.700195,00003.330078,00002.783203,00002.060547,-00000.297852,00000.073242,-00000.346680,00000.068359,-00000.014648,-00000.019531
0000000000963,00002.543945,00001.860352,00002.089844,00002.744141,00002.685547,00002.646484,00002.705078,00003.325195,00002.778320,00002.060547,-00000.297852,00000.068359,-00000.346680,00000.068359,-00000.014648,-00000.024414
0000000000964,00002.548828,00001.855469,00002.094727,00002.749023,00002.685547,00002.651367,00002.705078,00003.334961,00002.778320,00002.065430,-00000.302734,00000.068359,-00000.351563,00000.063477,-00000.014648,-00000.024414
0000000000965,00002.548828,00001.860352,00002.089844,00002.749023,00002.685547,00002.651367,00002.705078,00003.330078,00002.783203,00002.065430,-00000.302734,00000.068359,-00000.351563,00000.068359,-00000.014648,-00000.019531
0000000000966,00002.543945,00001.860352,00002.094727,00002.749023,00002.685547,00002.646484,00002.705078,00003.330078,00002.783203,00002.065430,-00000.302734,00000.068359,-00000.346680,00000.068359,-00000.014648,-00000.019531
0000000000967,00002.543945,00001.860352,00002.094727,00002.744141,00002.685547,00002.641602,00002.705078,00003.330078,00002.778320,00002.060547,-00000.302734,00000.073242,-00000.351563,00000.068359,-00000.014648,-00000.024414
0000000000968,00002.548828,00001.860352,00002.099609,00002.744141,00002.690430,00002.646484,00002.709961,00003.339844,00002.778320,00002.070313,-00000.297852,00000.068359,-00000.351563,00000.068359,-00000.014648,-00000.024414
0000000000969,00002.548828,00001.855469,00002.099609,00002.744141,00002.685547,00002.646484,00002.700195,00003.334961,00002.778320,00002.065430,-00000.302734,00000.068359,-00000.351563,00000.068359,-00000.014648,-00000.024414
0000000000970,00002.548828,00001.855469,00002.094727,00002.749023,00002.680664,00002.651367,00002.700195,00003.330078,00002.778320,00002.065430,-00000.302734,00000.068359,-00000.351563,00000.068359,-00000.014648,-00000.019531
0000000000971,00002.548828,00001.860352,00002.094727,00002.744141,00002.685547,00002.646484,00002.705078,00003.334961,00002.778320,00002.065430,-00000.302734,00000.068359,-00000.346680,00000.068359,-00000.014648,-00000.019531
0000000000972,00002.543945,00001.860352,00002.094727,00002.749023,00002.680664,00002.646484,00002.705078,00003.330078,00002.778320,00002.060547,-00000.302734,00000.068359,-00000.346680,00000.073242,-00000.014648,-00000.019531
0000000000973,00002.548828,00001.855469,00002.094727,00002.744141,00002.685547,00002.646484,00002.700195,00003.334961,00002.778320,00002.065430,-00000.302734,00000.068359,-00000.346680,00000.073242,-00000.014648,-00000.019531
0000000000974,00002.548828,00001.860352,00002.099609,00002.744141,00002.690430,00002.651367,00002.705078,00003.334961,00002.778320,00002.070313,-00000.302734,00000.073242,-00000.346680,00000.073242,-00000.014648,-00000.024414
0000000000975,00002.548828,00001.855469,00002.099609,00002.744141,00002.685547,00002.651367,00002.700195,00003.334961,00002.778320,00002.070313,-00000.302734,00000.068359,-00000.346680,00000.073242,-00000.014648,-00000.024414
0000000000976,00002.548828,00001.855469,00002.099609,00002.744141,00002.690430,00002.646484,00002.705078,00003.334961,00002.778320,00002.065430,-00000.302734,00000.073242,-00000.346680,00000.068359,-00000.014648,-00000.024414
0000000000977,00002.548828,00001.855469,00002.099609,00002.744141,00002.685547,00002.646484,00002.700195,00003.334961,00002.778320,00002.060547,-00000.302734,00000.073242,-00000.351563,00000.068359,-00000.019531,-00000.024414
0000000000978,00002.548828,00001.860352,00002.099609,00002.739258,00002.685547,00002.646484,00002.705078,00003.334961,00002.773438,00002.065430,-00000.302734,00000.068359,-00000.346680,00000.068359,-00000.019531,-00000.024414
0000000000979,00002.543945,00001.860352,00002.094727,00002.744141,00002.685547,00002.646484,00002.709961,00003.330078,00002.783203,00002.060547,-00000.297852,00000.068359,-00000.346680,00000.068359,-00000.019531,-00000.024414
0000000000980,00002.548828,00001.860352,00002.099609,00002.749023,00002.685547,00002.651367,00002.705078,00003.334961,00002.783203,00002.065430,-00000.297852,00000.068359,-00000.346680,00000.073242,-00000.014648,-00000.024414
0000000000981,00002.548828,00001.860352,00002.094727,00002.749023,00002.685547,00002.646484,00002.705078,00003.325195,00002.783203,00002.060547,-00000.297852,00000.068359,-00000.346680,00000.073242,-00000.014648,-00000.024414
0000000000982,00002.548828,00001.860352,00002.094727,00002.749023,00002.680664,00002.651367,00002.705078,00003.330078,00002.783203,00002.060547,-00000.302734,00000.073242,-00000.351563,00000.068359,-00000.014648,-00000.024414
0000000000983,00002.553711,00001.860352,00002.099609,00002.744141,00002.690430,00002.646484,00002.705078,00003.334961,00002.783203,00002.065430,-00000.302734,00000.068359,-00000.346680,00000.068359,-00000.014648,-00000.024414
0000000000984,00002.543945,00001.860352,00002.099609,00002.744141,00002.690430,00002.641602,00002.705078,00003.330078,00002.778320,00002.070313,-00000.302734,00000.068359,-00000.346680,00000.068359,-00000.019531,-00000.024414
0000000000985,00002.548828,00001.860352,00002.094727,00002.749023,00002.680664,00002.651367,00002.705078,00003.334961,00002.783203,00002.065430,-00000.302734,00000.068359,-00000.346680,00000.068359,-00000.019531,-00000.024414
0000000000986,00002.548828,00001.860352,00002.094727,00002.749023,00002.685547,00002.646484,00002.705078,00003.330078,00002.783203,00002.060547,-00000.302734,00000.068359,-00000.351563,00000.068359,-00000.019531,-00000.029297
0000000000987,00002.558594,00001.860352,00002.099609,00002.749023,00002.685547,00002.651367,00002.700195,00003.334961,00002.778320,00002.065430,-00000.302734,00000.063477,-00000.351563,00000.068359,-00000.019531,-00000.029297
0000000000988,00002.553711,00001.865234,00002.094727,00002.749023,00002.685547,00002.646484,00002.705078,00003.330078,00002.783203,00002.065430,-00000.302734,00000.063477,-00000.351563,00000.068359,-00000.019531,-00000.029297
0000000000989,00002.558594,00001.855469,00002.104492,00002.744141,00002.690430,00002.646484,00002.705078,00003.334961,00002.783203,00002.065430,-00000.302734,00000.063477,-00000.351563,00000.068359,-00000.019531,-00000.029297
0000000000990,00002.553711,00001.860352,00002.114258,00002.749023,00002.690430,00002.646484,00002.705078,00003.330078,00002.783203,00002.065430,-00000.302734,00000.068359,-00000.351563,00000.068359,-00000.019531,-00000.024414
0000000000991,00002.558594,00001.860352,00002.114258,00002.744141,00002.690430,00002.641602,00002.705078,00003.330078,00002.778320,00002.065430,-00000.302734,00000.068359,-00000.346680,00000.068359,-00000.019531,-00000.024414
0000000000992,00002.553711,00001.860352,00002.104492,00002.749023,00002.690430,00002.646484,00002.709961,00003.334961,00002.778320,00002.065430,-00000.302734,00000.068359,-00000.346680,00000.068359,-00000.019531,-00000.029297
0000000000993,00002.553711,00001.860352,00002.099609,00002.744141,00002.685547,00002.646484,00002.705078,00003.330078,00002.788086,00002.065430,-00000.302734,00000.063477,-00000.346680,00000.068359,-00000.014648,-00000.024414
0000000000994,00002.558594,00001.860352,00002.099609,00002.753906,00002.685547,00002.656250,00002.705078,00003.339844,00002.783203,00002.070313,-00000.302734,00000.063477,-00000.351563,00000.068359,-00000.014648,-00000.024414
0000000000995,00002.548828,00001.860352,00002.094727,00002.749023,00002.685547,00002.646484,00002.709961,00003.330078,00002.783203,00002.065430,-00000.302734,00000.063477,-00000.351563,00000.068359,-00000.014648,-00000.024414
0000000000996,00002.553711,00001.860352,00002.094727,00002.744141,00002.690430,00002.646484,00002.705078,00003.330078,00002.783203,00002.065430,-00000.302734,00000.063477,-00000.346680,00000.063477,-00000.019531,-00000.024414
0000000000997,00002.553711,00001.855469,00002.094727,00002.744141,00002.685547,00002.651367,00002.705078,00003.334961,00002.783203,00002.065430,-00000.302734,00000.068359,-00000.351563,00000.068359,-00000.019531,-00000.024414
0000000000998,00002.553711,00001.855469,00002.099609,00002.744141,00002.690430,00002.646484,00002.705078,00003.334961,00002.783203,00002.070313,-00000.302734,00000.068359,-00000.346680,00000.068359,-00000.019531,-00000.024414
0000000000999,00002.548828,00001.855469,00002.094727,00002.744141,00002.685547,00002.646484,00002.705078,00003.334961,00002.778320,00002.065430,-00000.302734,00000.068359,-00000.346680,00000.068359,-00000.019531,-00000.024414
0000000001000,00002.553711,00001.855469,00002.094727,00002.749023,00002.680664,00002.651367,00002.700195,00003.334961,00002.783203,00002.065430,-00000.302734,00000.068359,-00000.346680,00000.068359,-00000.019531,-00000.024414
0000000001001,00002.548828,00001.860352,00002.094727,00002.744141,00002.690430,00002.646484,00002.709961,00003.330078,00002.788086,00002.065430,-00000.302734,00000.068359,-00000.346680,00000.068359,-00000.019531,-00000.024414
0000000001002,00002.543945,00001.860352,00002.094727,00002.744141,00002.685547,00002.641602,00002.709961,00003.330078,00002.783203,00002.065430,-00000.302734,00000.068359,-00000.351563,00000.068359,-00000.019531,-00000.029297
0000000001003,00002.553711,00001.855469,00002.094727,00002.744141,00002.685547,00002.646484,00002.705078,00003.334961,00002.778320,00002.065430,-00000.302734,00000.063477,-00000.351563,00000.068359,-00000.019531,-00000.029297
0000000001004,00002.548828,00001.860352,00002.089844,00002.744141,00002.685547,00002.646484,00002.705078,00003.330078,00002.783203,00002.065430,-00000.302734,00000.063477,-00000.351563,00000.068359,-00000.014648,-00000.029297
0000000001005,00002.548828,00001.855469,00002.094727,00002.739258,00002.685547,00002.641602,00002.705078,00003.330078,00002.778320,00002.065430,-00000.302734,00000.068359,-00000.351563,00000.068359,-00000.014648,-00000.024414
0000000001006,00002.548828,00001.855469,00002.094727,00002.744141,00002.685547,00002.651367,00002.700195,00003.334961,00002.778320,00002.065430,-00000.302734,00000.068359,-00000.351563,00000.068359,-00000.009766,-00000.029297
0000000001007,00002.553711,00001.860352,00002.099609,00002.744141,00002.685547,00002.651367,00002.705078,00003.339844,00002.783203,00002.065430,-00000.297852,00000.068359,-00000.351563,00000.068359,-00000.009766,-00000.029297
0000000001008,00002.553711,00001.855469,00002.094727,00002.749023,00002.680664,00002.646484,00002.700195,00003.330078,00002.778320,00002.065430,-00000.297852,00000.068359,-00000.351563,00000.068359,-00000.009766,-00000.029297
0000000001009,00002.553711,00001.855469,00002.104492,00002.744141,00002.685547,00002.646484,00002.700195,00003.334961,00002.778320,00002.070313,-00000.302734,00000.068359,-00000.356445,00000.068359,-00000.004883,-00000.024414
0000000001010,00002.548828,00001.860352,00002.124023,00002.749023,00002.685547,00002.651367,00002.705078,00003.334961,00002.788086,00002.065430,-00000.302734,00000.063477,-00000.356445,00000.068359,-00000.004883,-00000.029297
0000000001011,00002.548828,00001.860352,00002.124023,00002.744141,00002.685547,00002.641602,00002.705078,00003.325195,00002.783203,00002.060547,-00000.297852,00000.068359,-00000.346680,00000.073242,-00000.004883,-00000.024414
0000000001012,00002.548828,00001.855469,00002.128906,00002.739258,00002.685547,00002.646484,00002.700195,00003.334961,00002.778320,00002.065430,-00000.297852,00000.068359,-00000.346680,00000.073242,-00000.004883,-00000.024414
0000000001013,00002.553711,00001.855469,00002.128906,00002.744141,00002.685547,00002.646484,00002.705078,00003.334961,00002.778320,00002.065430,-00000.302734,00000.068359,-00000.351563,00000.073242,-00000.009766,-00000.024414
0000000001014,00002.548828,00001.855469,00002.128906,00002.739258,00002.690430,00002.646484,00002.705078,00003.334961,00002.778320,00002.065430,-00000.302734,00000.063477,-00000.351563,00000.073242,-00000.004883,-00000.024414
0000000001015,00002.548828,00001.860352,00002.124023,00002.744141,00002.685547,00002.641602,00002.709961,00003.330078,00002.783203,00002.065430,-00000.302734,00000.068359,-00000.351563,00000.073242,-00000.009766,-00000.024414
0000000001016,00002.553711,00001.860352,00002.128906,00002.744141,00002.690430,00002.646484,00002.705078,00003.339844,00002.783203,00002.070313,-00000.302734,00000.063477,-00000.351563,00000.068359,-00000.009766,-00000.024414
0000000001017,00002.553711,00001.855469,00002.128906,00002.744141,00002.685547,00002.646484,00002.700195,00003.334961,00002.778320,00002.065430,-00000.297852,00000.063477,-00000.351563,00000.068359,-00000.009766,-00000.024414
0000000001018,00002.548828,00001.860352,00002.124023,00002.739258,00002.685547,00002.641602,00002.705078,00003.325195,00002.778320,00002.065430,-00000.302734,00000.063477,-00000.351563,00000.068359,-00000.009766,-00000.024414
0000000001019,00002.548828,00001.860352,00002.124023,00002.744141,00002.685547,00002.646484,00002.705078,00003.330078,00002.783203,00002.065430,-00000.302734,00000.063477,-00000.351563,00000.068359,-00000.009766,-00000.024414
0000000001020,00002.543945,00001.860352,00002.124023,00002.744141,00002.685547,00002.641602,00002.705078,00003.325195,00002.778320,00002.065430,-00000.302734,00000.063477,-00000.346680,00000.073242,-00000.009766,-00000.024414
0000000001021,00002.553711,00001.860352,00002.128906,00002.744141,00002.685547,00002.651367,00002.700195,00003.334961,00002.778320,00002.065430,-00000.297852,00000.068359,-00000.346680,00000.073242,-00000.009766,-00000.024414
0000000001022,00002.548828,00001.860352,00002.124023,00002.744141,00002.680664,00002.646484,00002.705078,00003.330078,00002.783203,00002.065430,-00000.302734,00000.068359,-00000.351563,00000.073242,-00000.009766,-00000.024414
0000000001023,00002.558594,00001.860352,00002.128906,00002.749023,00002.685547,00002.651367,00002.700195,00003.334961,00002.783203,00002.065430,-00000.297852,00000.068359,-00000.346680,00000.073242,-00000.009766,-00000.024414
0000000001024,00002.548828,00001.860352,00002.128906,00002.749023,00002.685547,00002.651367,00002.709961,00003.334961,00002.788086,00002.065430,-00000.302734,00000.068359,-00000.351563,00000.073242,-00000.009766,-00000.019531
0000000001025,00002.553711,00001.860352,00002.133789,00002.749023,00002.685547,00002.651367,00002.705078,00003.339844,00002.783203,00002.065430,-00000.297852,00000.068359,-00000.346680,00000.073242,-00000.009766,-00000.024414
0000000001026,00002.548828,00001.855469,00002.128906,00002.744141,00002.685547,00002.646484,00002.700195,00003.334961,00002.778320,00002.070313,-00000.302734,00000.068359,-00000.346680,00000.073242,-00000.009766,-00000.024414
0000000001027,00002.548828,00001.860352,00002.128906,00002.744141,00002.685547,00002.641602,00002.705078,00003.330078,00002.783203,00002.065430,-00000.297852,00000.068359,-00000.346680,00000.073242,-00000.009766,-00000.024414
0000000001028,00002.553711,00001.855469,00002.133789,00002.744141,00002.690430,00002.646484,00002.705078,00003.334961,00002.783203,00002.070313,-00000.297852,00000.068359,-00000.346680,00000.073242,-00000.009766,-00000.024414
0000000001029,00002.553711,00001.855469,00002.128906,00002.744141,00002.690430,00002.646484,00002.700195,00003.334961,00002.778320,00002.075195,-00000.297852,00000.063477,-00000.346680,00000.073242,-00000.009766,-00000.019531
0000000001030,00002.553711,00001.860352,00002.128906,00002.744141,00002.685547,00002.646484,00002.700195,00003.330078,00002.778320,00002.070313,-00000.297852,00000.063477,-00000.346680,00000.073242,-00000.004883,-00000.019531
0000000001031,00002.553711,00001.860352,00002.128906,00002.749023,00002.680664,00002.651367,00002.700195,00003.330078,00002.778320,00002.065430,-00000.302734,00000.063477,-00000.351563,00000.073242,-00000.004883,-00000.014648
0000000001032,00002.548828,00001.860352,00002.128906,00002.749023,00002.685547,00002.651367,00002.709961,00003.330078,00002.788086,00002.070313,-00000.302734,00000.068359,-00000.351563,00000.073242,-00000.004883,-00000.014648
0000000001033,00002.548828,00001.860352,00002.124023,00002.749023,00002.680664,00002.651367,00002.705078,00003.325195,00002.783203,00002.070313,-00000.297852,00000.068359,-00000.351563,00000.073242,-00000.004883,-00000.019531
0000000001034,00002.553711,00001.855469,00002.133789,00002.749023,00002.685547,00002.651367,00002.705078,00003.339844,00002.783203,00002.070313,-00000.297852,00000.068359,-00000.351563,00000.073242,-00000.004883,-00000.019531
0000000001035,00002.548828,00001.860352,00002.124023,00002.749023,00002.685547,00002.646484,00002.705078,00003.330078,00002.783203,00002.060547,-00000.302734,00000.063477,-00000.351563,00000.073242,-00000.004883,-00000.019531
0000000001036,00002.548828,00001.855469,00002.128906,00002.744141,00002.685547,00002.646484,00002.700195,00003.334961,00002.778320,00002.070313,-00000.297852,00000.068359,-00000.351563,00000.073242,-00000.004883,-00000.019531
0000000001037,00002.548828,00001.860352,00002.128906,00002.749023,00002.680664,00002.651367,00002.705078,00003.330078,00002.783203,00002.070313,-00000.302734,00000.063477,-00000.356445,00000.073242,-00000.009766,-00000.019531
0000000001038,00002.548828,00001.855469,00002.128906,00002.744141,00002.680664,00002.646484,00002.700195,00003.334961,00002.783203,00002.070313,-00000.302734,00000.063477,-00000.351563,00000.068359,-00000.004883,-00000.024414
0000000001039,00002.548828,00001.855469,00002.133789,00002.744141,00002.685547,00002.651367,00002.700195,00003.334961,00002.783203,00002.070313,-00000.302734,00000.063477,-00000.351563,00000.068359,-00000.004883,-00000.019531
0000000001040,00002.548828,00001.855469,00002.128906,00002.744141,00002.680664,00002.646484,00002.700195,00003.334961,00002.778320,00002.065430,-00000.302734,00000.063477,-00000.351563,00000.068359,-00000.004883,-00000.019531
0000000001041,00002.543945,00001.860352,00002.128906,00002.744141,00002.685547,00002.641602,00002.705078,00003.330078,00002.783203,00002.065430,-00000.302734,00000.063477,-00000.351563,00000.068359,-00000.004883,-00000.019531
0000000001042,00002.548828,00001.855469,00002.124023,00002.744141,00002.680664,00002.651367,00002.705078,00003.330078,00002.783203,00002.065430,-00000.302734,00000.063477,-00000.351563,00000.068359,-00000.004883,-00000.019531
0000000001043,00002.548828,00001.855469,00002.128906,00002.739258,00002.685547,00002.646484,00002.700195,00003.334961,00002.778320,00002.065430,-00000.302734,00000.063477,-00000.351563,00000.068359,-00000.004883,-00000.019531
0000000001044,00002.548828,00001.855469,00002.128906,00002.739258,00002.685547,00002.646484,00002.700195,00003.334961,00002.778320,00002.070313,-00000.302734,00000.063477,-00000.351563,00000.073242,-00000.004883,-00000.019531
0000000001045,00002.543945,00001.860352,00002.124023,00002.744141,00002.685547,00002.641602,00002.705078,00003.330078,00002.788086,00002.065430,-00000.302734,00000.063477,-00000.351563,00000.068359,-00000.004883,-00000.024414
0000000001046,00002.543945,00001.855469,00002.124023,00002.744141,00002.680664,00002.646484,00002.705078,00003.330078,00002.783203,00002.065430,-00000.302734,00000.063477,-00000.351563,00000.068359,-00000.004883,-00000.024414
0000000001047,00002.543945,00001.860352,00002.124023,00002.744141,00002.685547,00002.641602,00002.705078,00003.325195,00002.783203,00002.065430,-00000.302734,00000.063477,-00000.351563,00000.063477,-00000.004883,-00000.024414
0000000001048,00002.548828,00001.855469,00002.124023,00002.744141,00002.680664,00002.646484,00002.705078,00003.330078,00002.783203,00002.065430,-00000.302734,00000.063477,-00000.351563,00000.068359,-00000.004883,-00000.024414
0000000001049,00002.553711,00001.855469,00002.128906,00002.739258,00002.685547,00002.646484,00002.700195,00003.334961,00002.783203,00002.070313,-00000.302734,00000.063477,-00000.351563,00000.068359,-00000.004883,-00000.024414
0000000001050,00002.543945,00001.860352,00002.124023,00002.739258,00002.685547,00002.641602,00002.705078,00003.325195,00002.778320,00002.060547,-00000.302734,00000.063477,-00000.351563,00000.068359,-00000.004883,-00000.024414
0000000001051,00002.548828,00001.860352,00002.128906,00002.744141,00002.685547,00002.646484,00002.709961,00003.330078,00002.788086,00002.065430,-00000.302734,00000.063477,-00000.351563,00000.068359,-00000.004883,-00000.024414
0000000001052,00002.548828,00001.860352,00002.128906,00002.744141,00002.680664,00002.651367,00002.700195,00003.334961,00002.783203,00002.070313,-00000.302734,00000.063477,-00000.351563,00000.068359,-00000.004883,-00000.019531
0000000001053,00002.548828,00001.855469,00002.128906,00002.739258,00002.685547,00002.641602,00002.705078,00003.330078,00002.778320,00002.070313,-00000.302734,00000.063477,-00000.351563,00000.068359,-00000.004883,-00000.019531
0000000001054,00002.548828,00001.855469,00002.124023,00002.744141,00002.680664,00002.646484,00002.700195,00003.330078,00002.783203,00002.065430,-00000.302734,00000.068359,-00000.351563,00000.068359,-00000.004883,-00000.014648
0000000001055,00002.543945,00001.860352,00002.124023,00002.744141,00002.685547,00002.641602,00002.705078,00003.325195,00002.783203,00002.065430,-00000.302734,00000.068359,-00000.346680,00000.063477,-00000.004883,-00000.019531
0000000001056,00002.548828,00001.855469,00002.128906,00002.739258,00002.685547,00002.646484,00002.700195,00003.334961,00002.778320,00002.070313,-00000.297852,00000.068359,-00000.346680,00000.068359,-00000.004883,-00000.019531
0000000001057,00002.548828,00001.860352,00002.124023,00002.744141,00002.685547,00002.641602,00002.705078,00003.325195,00002.788086,00002.065430,-00000.297852,00000.068359,-00000.351563,00000.068359,-00000.004883,-00000.019531
0000000001058,00002.543945,00001.860352,00002.124023,00002.744141,00002.685547,00002.646484,00002.705078,00003.330078,00002.788086,00002.065430,-00000.302734,00000.068359,-00000.351563,00000.068359,-00000.004883,-00000.019531
0000000001059,00002.543945,00001.860352,00002.124023,00002.744141,00002.685547,00002.646484,00002.705078,00003.330078,00002.783203,00002.065430,-00000.302734,00000.063477,-00000.351563,00000.068359,-00000.004883,-00000.019531
0000000001060,00002.548828,00001.855469,00002.124023,00002.744141,00002.680664,00002.651367,00002.705078,00003.334961,00002.783203,00002.070313,-00000.302734,00000.063477,-00000.346680,00000.068359,-00000.004883,-00000.024414
0000000001061,00002.548828,00001.860352,00002.128906,00002.739258,00002.685547,00002.641602,00002.709961,00003.330078,00002.783203,00002.065430,-00000.302734,00000.063477,-00000.351563,00000.068359,00000.000000,-00000.024414
0000000001062,00002.548828,00001.860352,00002.128906,00002.744141,00002.690430,00002.646484,00002.705078,00003.330078,00002.783203,00002.065430,-00000.302734,00000.063477,-00000.346680,00000.068359,00000.000000,-00000.019531
0000000001063,00002.548828,00001.860352,00002.124023,00002.744141,00002.685547,00002.651367,00002.705078,00003.330078,00002.783203,00002.065430,-00000.302734,00000.063477,-00000.351563,00000.068359,-00000.004883,-00000.019531
0000000001064,00002.553711,00001.855469,00002.128906,00002.744141,00002.685547,00002.646484,00002.700195,00003.334961,00002.783203,00002.070313,-00000.302734,00000.063477,-00000.346680,00000.068359,-00000.004883,-00000.019531
0000000001065,00002.548828,00001.860352,00002.128906,00002.739258,00002.685547,00002.641602,00002.705078,00003.330078,00002.783203,00002.065430,-00000.302734,00000.063477,-00000.351563,00000.068359,00000.000000,-00000.019531
0000000001066,00002.553711,00001.860352,00002.128906,00002.739258,00002.690430,00002.646484,00002.705078,00003.334961,00002.783203,00002.070313,-00000.302734,00000.063477,-00000.351563,00000.068359,-00000.004883,-00000.019531
0000000001067,00002.548828,00001.860352,00002.124023,00002.744141,00002.680664,00002.646484,00002.700195,00003.325195,00002.783203,00002.065430,-00000.307617,00000.063477,-00000.351563,00000.063477,-00000.004883,-00000.019531
0000000001068,00002.548828,00001.860352,00002.128906,00002.739258,00002.690430,00002.646484,00002.705078,00003.334961,00002.783203,00002.070313,-00000.302734,00000.063477,-00000.351563,00000.068359,-00000.004883,-00000.019531
0000000001069,00002.548828,00001.860352,00002.124023,00002.749023,00002.680664,00002.646484,00002.705078,00003.330078,00002.783203,00002.065430,-00000.302734,00000.063477,-00000.356445,00000.063477,-00000.004883,-00000.019531
0000000001070,00002.548828,00001.860352,00002.124023,00002.749023,00002.685547,00002.646484,00002.705078,00003.330078,00002.788086,00002.065430,-00000.307617,00000.058594,-00000.356445,00000.068359,-00000.004883,-00000.019531
0000000001071,00002.558594,00001.860352,00002.128906,00002.749023,00002.690430,00002.646484,00002.705078,00003.334961,00002.783203,00002.075195,-00000.302734,00000.058594,-00000.356445,00000.063477,-00000.004883,-00000.019531
0000000001072,00002.553711,00001.860352,00002.124023,00002.749023,00002.685547,00002.646484,00002.700195,00003.325195,00002.783203,00002.070313,-00000.307617,00000.063477,-00000.356445,00000.063477,-00000.004883,-00000.024414
0000000001073,00002.563477,00001.855469,00002.128906,00002.749023,00002.685547,00002.646484,00002.700195,00003.334961,00002.778320,00002.070313,-00000.302734,00000.058594,-00000.351563,00000.063477,-00000.004883,-00000.024414
0000000001074,00002.558594,00001.860352,00002.128906,00002.744141,00002.690430,00002.651367,00002.705078,00003.334961,00002.783203,00002.075195,-00000.307617,00000.063477,-00000.351563,00000.068359,-00000.004883,-00000.024414
0000000001075,00002.553711,00001.865234,00002.128906,00002.753906,00002.685547,00002.646484,00002.705078,00003.330078,00002.788086,00002.065430,-00000.307617,00000.063477,-00000.351563,00000.068359,-00000.004883,-00000.024414
0000000001076,00002.558594,00001.860352,00002.128906,00002.744141,00002.685547,00002.646484,00002.700195,00003.334961,00002.783203,00002.070313,-00000.307617,00000.063477,-00000.351563,00000.073242,00000.000000,-00000.019531
0000000001077,00002.558594,00001.860352,00002.124023,00002.749023,00002.680664,00002.651367,00002.700195,00003.330078,00002.783203,00002.070313,-00000.307617,00000.063477,-00000.351563,00000.073242,00000.000000,-00000.019531
0000000001078,00002.553711,00001.860352,00002.124023,00002.744141,00002.690430,00002.646484,00002.705078,00003.330078,00002.783203,00002.070313,-00000.307617,00000.058594,-00000.351563,00000.068359,-00000.004883,-00000.019531
0000000001079,00002.553711,00001.860352,00002.124023,00002.749023,00002.685547,00002.651367,00002.705078,00003.334961,00002.788086,00002.070313,-00000.307617,00000.058594,-00000.356445,00000.068359,-00000.009766,-00000.024414
0000000001080,00002.553711,00001.855469,00002.128906,00002.744141,00002.690430,00002.646484,00002.705078,00003.334961,00002.783203,00002.070313,-00000.307617,00000.058594,-00000.356445,00000.063477,-00000.009766,-00000.024414
0000000001081,00002.548828,00001.860352,00002.114258,00002.749023,00002.685547,00002.646484,00002.705078,00003.330078,00002.788086,00002.065430,-00000.307617,00000.058594,-00000.356445,00000.063477,-00000.009766,-00000.024414
0000000001082,00002.548828,00001.860352,00002.109375,00002.744141,00002.690430,00002.646484,00002.709961,00003.330078,00002.788086,00002.070313,-00000.307617,00000.058594,-00000.361328,00000.063477,-00000.009766,-00000.024414
0000000001083,00002.548828,00001.860352,00002.104492,00002.749023,00002.685547,00002.646484,00002.705078,00003.330078,00002.788086,00002.070313,-00000.307617,00000.053711,-00000.356445,00000.068359,-00000.004883,-00000.024414
0000000001084,00002.553711,00001.860352,00002.104492,00002.749023,00002.685547,00002.651367,00002.705078,00003.330078,00002.788086,00002.070313,-00000.307617,00000.058594,-00000.361328,00000.068359,-00000.004883,-00000.024414
0000000001085,00002.553711,00001.855469,00002.109375,00002.744141,00002.685547,00002.646484,00002.705078,00003.334961,00002.783203,00002.070313,-00000.307617,00000.058594,-00000.356445,00000.068359,-00000.004883,-00000.024414
0000000001086,00002.553711,00001.855469,00002.109375,00002.744141,00002.685547,00002.646484,00002.700195,00003.334961,00002.783203,00002.070313,-00000.307617,00000.058594,-00000.356445,00000.068359,-00000.009766,-00000.024414
0000000001087,00002.548828,00001.860352,00002.104492,00002.744141,00002.685547,00002.646484,00002.705078,00003.330078,00002.788086,00002.070313,-00000.307617,00000.058594,-00000.356445,00000.068359,-00000.014648,-00000.024414
0000000001088,00002.548828,00001.860352,00002.099609,00002.744141,00002.685547,00002.646484,00002.705078,00003.330078,00002.788086,00002.070313,-00000.307617,00000.058594,-00000.361328,00000.063477,-00000.009766,-00000.024414
0000000001089,00002.548828,00001.860352,00002.099609,00002.744141,00002.685547,00002.646484,00002.705078,00003.330078,00002.788086,00002.070313,-00000.307617,00000.058594,-00000.356445,00000.068359,-00000.009766,-00000.024414
0000000001090,00002.548828,00001.860352,00002.104492,00002.744141,00002.685547,00002.641602,00002.705078,00003.330078,00002.783203,00002.070313,-00000.307617,00000.058594,-00000.356445,00000.068359,-00000.009766,-00000.024414
0000000001091,00002.553711,00001.855469,00002.104492,00002.749023,00002.685547,00002.651367,00002.705078,00003.339844,00002.783203,00002.075195,-00000.307617,00000.058594,-00000.361328,00000.063477,-00000.009766,-00000.024414
0000000001092,00002.548828,00001.860352,00002.104492,00002.744141,00002.685547,00002.646484,00002.705078,00003.330078,00002.788086,00002.070313,-00000.307617,00000.058594,-00000.361328,00000.063477,-00000.014648,-00000.024414
0000000001093,00002.553711,00001.855469,00002.104492,00002.739258,00002.685547,00002.646484,00002.705078,00003.334961,00002.783203,00002.075195,-00000.307617,00000.058594,-00000.361328,00000.063477,-00000.014648,-00000.024414
0000000001094,00002.558594,00001.860352,00002.109375,00002.744141,00002.685547,00002.646484,00002.705078,00003.334961,00002.783203,00002.075195,-00000.307617,00000.058594,-00000.361328,00000.063477,-00000.014648,-00000.024414
0000000001095,00002.553711,00001.860352,00002.099609,00002.749023,00002.685547,00002.641602,00002.705078,00003.330078,00002.788086,00002.070313,-00000.307617,00000.058594,-00000.361328,00000.063477,-00000.009766,-00000.024414
0000000001096,00002.558594,00001.860352,00002.104492,00002.744141,00002.685547,00002.646484,00002.700195,00003.334961,00002.783203,00002.070313,-00000.307617,00000.053711,-00000.361328,00000.063477,-00000.009766,-00000.024414
0000000001097,00002.558594,00001.860352,00002.104492,00002.744141,00002.680664,00002.651367,00002.700195,00003.334961,00002.783203,00002.070313,-00000.307617,00000.058594,-00000.356445,00000.063477,-00000.009766,-00000.024414
0000000001098,00002.548828,00001.855469,00002.104492,00002.739258,00002.685547,00002.646484,00002.705078,00003.334961,00002.783203,00002.075195,-00000.307617,00000.058594,-00000.361328,00000.063477,-00000.009766,-00000.024414
0000000001099,00002.553711,00001.860352,00002.104492,00002.744141,00002.690430,00002.641602,00002.709961,00003.330078,00002.783203,00002.075195,-00000.307617,00000.058594,-00000.361328,00000.063477,-00000.009766,-00000.024414
0000000001100,00002.548828,00001.860352,00002.104492,00002.744141,00002.685547,00002.646484,00002.705078,00003.330078,00002.788086,00002.070313,-00000.307617,00000.053711,-00000.361328,00000.063477,-00000.009766,-00000.019531
0000000001101,00002.553711,00001.860352,00002.114258,00002.744141,00002.685547,00002.646484,00002.705078,00003.330078,00002.788086,00002.075195,-00000.307617,00000.053711,-00000.361328,00000.063477,-00000.009766,-00000.024414
0000000001102,00002.553711,00001.860352,00002.119141,00002.744141,00002.685547,00002.646484,00002.705078,00003.330078,00002.788086,00002.080078,-00000.307617,00000.053711,-00000.361328,00000.068359,-00000.009766,-00000.024414
0000000001103,00002.563477,00001.860352,00002.128906,00002.749023,00002.690430,00002.651367,00002.705078,00003.334961,00002.783203,00002.084961,-00000.307617,00000.053711,-00000.366211,00000.063477,-00000.014648,-00000.024414
0000000001104,00002.558594,00001.860352,00002.124023,00002.744141,00002.685547,00002.641602,00002.705078,00003.330078,00002.783203,00002.080078,-00000.312500,00000.053711,-00000.366211,00000.068359,-00000.009766,-00000.024414
0000000001105,00002.558594,00001.865234,00002.124023,00002.753906,00002.685547,00002.646484,00002.705078,00003.330078,00002.788086,00002.080078,-00000.307617,00000.053711,-00000.361328,00000.068359,-00000.009766,-00000.024414
0000000001106,00002.563477,00001.865234,00002.124023,00002.753906,00002.685547,00002.646484,00002.705078,00003.325195,00002.788086,00002.084961,-00000.307617,00000.058594,-00000.361328,00000.063477,-00000.014648,-00000.024414
0000000001107,00002.568359,00001.860352,00002.128906,00002.753906,00002.685547,00002.651367,00002.705078,00003.334961,00002.788086,00002.089844,-00000.307617,00000.058594,-00000.356445,00000.068359,-00000.009766,-00000.019531
0000000001108,00002.558594,00001.865234,00002.124023,00002.749023,00002.685547,00002.646484,00002.705078,00003.330078,00002.792969,00002.089844,-00000.307617,00000.053711,-00000.361328,00000.063477,-00000.009766,-00000.019531
0000000001109,00002.563477,00001.855469,00002.128906,00002.749023,00002.685547,00002.646484,00002.700195,00003.334961,00002.783203,00002.089844,-00000.307617,00000.053711,-00000.361328,00000.063477,-00000.009766,-00000.024414
0000000001110,00002.563477,00001.865234,00002.128906,00002.749023,00002.690430,00002.651367,00002.709961,00003.330078,00002.792969,00002.089844,-00000.307617,00000.053711,-00000.366211,00000.058594,-00000.014648,-00000.019531
0000000001111,00002.558594,00001.865234,00002.124023,00002.753906,00002.685547,00002.646484,00002.705078,00003.330078,00002.792969,00002.089844,-00000.307617,00000.053711,-00000.361328,00000.058594,-00000.014648,-00000.019531
0000000001112,00002.563477,00001.860352,00002.128906,00002.749023,00002.690430,00002.651367,00002.705078,00003.339844,00002.788086,00002.094727,-00000.307617,00000.053711,-00000.361328,00000.058594,-00000.014648,-00000.019531
0000000001113,00002.558594,00001.860352,00002.124023,00002.753906,00002.690430,00002.646484,00002.709961,00003.325195,00002.792969,00002.094727,-00000.312500,00000.053711,-00000.361328,00000.063477,-00000.014648,-00000.024414
0000000001114,00002.563477,00001.865234,00002.124023,00002.753906,00002.690430,00002.646484,00002.705078,00003.330078,00002.792969,00002.089844,-00000.312500,00000.053711,-00000.361328,00000.063477,-00000.014648,-00000.019531
0000000001115,00002.563477,00001.860352,00002.128906,00002.758789,00002.685547,00002.656250,00002.705078,00003.334961,00002.792969,00002.094727,-00000.307617,00000.058594,-00000.361328,00000.063477,-00000.009766,-00000.019531
0000000001116,00002.568359,00001.865234,00002.128906,00002.763672,00002.690430,00002.651367,00002.709961,00003.330078,00002.792969,00002.094727,-00000.307617,00000.053711,-00000.361328,00000.063477,-00000.009766,-00000.019531
0000000001117,00002.568359,00001.860352,00002.128906,00002.753906,00002.690430,00002.651367,00002.700195,00003.334961,00002.788086,00002.094727,-00000.312500,00000.053711,-00000.361328,00000.063477,-00000.009766,-00000.019531
0000000001118,00002.568359,00001.860352,00002.124023,00002.758789,00002.685547,00002.656250,00002.705078,00003.330078,00002.788086,00002.089844,-00000.312500,00000.053711,-00000.361328,00000.068359,-00000.009766,-00000.019531
0000000001119,00002.563477,00001.865234,00002.124023,00002.758789,00002.690430,00002.651367,00002.709961,00003.330078,00002.792969,00002.094727,-00000.307617,00000.058594,-00000.361328,00000.068359,-00000.009766,-00000.019531
0000000001120,00002.563477,00001.860352,00002.124023,00002.758789,00002.685547,00002.656250,00002.700195,00003.334961,00002.792969,00002.094727,-00000.312500,00000.053711,-00000.356445,00000.068359,-00000.009766,-00000.019531
0000000001121,00002.563477,00001.860352,00002.128906,00002.753906,00002.685547,00002.651367,00002.700195,00003.330078,00002.788086,00002.094727,-00000.307617,00000.053711,-00000.366211,00000.063477,-00000.009766,-00000.024414
0000000001122,00002.558594,00001.860352,00002.124023,00002.758789,00002.685547,00002.651367,00002.700195,00003.330078,00002.788086,00002.089844,-00000.307617,00000.053711,-00000.366211,00000.058594,-00000.009766,-00000.019531
0000000001123,00002.558594,00001.855469,00002.128906,00002.753906,00002.685547,00002.651367,00002.700195,00003.334961,00002.788086,00002.094727,-00000.307617,00000.048828,-00000.366211,00000.058594,-00000.014648,-00000.024414
0000000001124,00002.558594,00001.865234,00002.124023,00002.753906,00002.690430,00002.646484,00002.705078,00003.330078,00002.792969,00002.089844,-00000.312500,00000.053711,-00000.366211,00000.053711,-00000.014648,-00000.024414
0000000001125,00002.558594,00001.855469,00002.124023,00002.749023,00002.685547,00002.646484,00002.700195,00003.334961,00002.788086,00002.094727,-00000.307617,00000.053711,-00000.371094,00000.053711,-00000.014648,-00000.024414
0000000001126,00002.558594,00001.855469,00002.124023,00002.749023,00002.685547,00002.646484,00002.705078,00003.330078,00002.783203,00002.089844,-00000.312500,00000.048828,-00000.366211,00000.053711,-00000.014648,-00000.024414
0000000001127,00002.558594,00001.860352,00002.124023,00002.749023,00002.690430,00002.646484,00002.705078,00003.330078,00002.788086,00002.089844,-00000.312500,00000.043945,-00000.375977,00000.073242,-00000.014648,-00000.024414
0000000001128,00002.553711,00001.860352,00002.124023,00002.753906,00002.685547,00002.646484,00002.705078,00003.330078,00002.792969,00002.089844,-00000.312500,00000.048828,-00000.375977,00000.078125,-00000.014648,-00000.019531
0000000001129,00002.558594,00001.860352,00002.124023,00002.758789,00002.685547,00002.651367,00002.705078,00003.330078,00002.792969,00002.089844,-00000.312500,00000.048828,-00000.371094,00000.073242,-00000.014648,-00000.019531
0000000001130,00002.558594,00001.860352,00002.124023,00002.753906,00002.685547,00002.651367,00002.705078,00003.330078,00002.792969,00002.089844,-00000.312500,00000.048828,-00000.375977,00000.078125,-00000.014648,-00000.019531
0000000001131,00002.563477,00001.860352,00002.128906,00002.749023,00002.690430,00002.651367,00002.700195,00003.334961,00002.788086,00002.089844,-00000.312500,00000.048828,-00000.371094,00000.073242,-00000.014648,-00000.019531
0000000001132,00002.558594,00001.860352,00002.128906,00002.753906,00002.685547,00002.651367,00002.700195,00003.334961,00002.788086,00002.089844,-00000.312500,00000.048828,-00000.371094,00000.073242,-00000.014648,-00000.019531
0000000001133,00002.558594,00001.860352,00002.124023,00002.753906,00002.685547,00002.651367,00002.705078,00003.330078,00002.797852,00002.089844,-00000.312500,00000.043945,-00000.371094,00000.073242,-00000.014648,-00000.019531
0000000001134,00002.558594,00001.865234,00002.124023,00002.758789,00002.690430,00002.656250,00002.705078,00003.330078,00002.797852,00002.089844,-00000.312500,00000.043945,-00000.371094,00000.073242,-00000.014648,-00000.019531
0000000001135,00002.563477,00001.860352,00002.128906,00002.753906,00002.690430,00002.651367,00002.705078,00003.334961,00002.788086,00002.094727,-00000.312500,00000.043945,-00000.371094,00000.073242,-00000.014648,-00000.019531
0000000001136,00002.558594,00001.860352,00002.124023,00002.753906,00002.685547,00002.646484,00002.705078,00003.325195,00002.792969,00002.089844,-00000.312500,00000.048828,-00000.371094,00000.078125,-00000.009766,-00000.019531
0000000001137,00002.563477,00001.860352,00002.124023,00002.753906,00002.690430,00002.646484,00002.705078,00003.330078,00002.788086,00002.094727,-00000.312500,00000.048828,-00000.371094,00000.078125,-00000.009766,-00000.019531
0000000001138,00002.563477,00001.860352,00002.128906,00002.753906,00002.690430,00002.646484,00002.705078,00003.330078,00002.788086,00002.089844,-00000.312500,00000.048828,-00000.366211,00000.078125,-00000.014648,-00000.019531
0000000001139,00002.563477,00001.865234,00002.124023,00002.753906,00002.690430,00002.651367,00002.709961,00003.330078,00002.792969,00002.089844,-00000.312500,00000.048828,-00000.366211,00000.078125,-00000.014648,-00000.019531
0000000001140,00002.563477,00001.855469,00002.128906,00002.749023,00002.685547,00002.651367,00002.700195,00003.330078,00002.788086,00002.094727,-00000.312500,00000.048828,-00000.366211,00000.078125,-00000.014648,-00000.019531
0000000001141,00002.558594,00001.860352,00002.124023,00002.753906,00002.685547,00002.646484,00002.705078,00003.330078,00002.788086,00002.089844,-00000.312500,00000.048828,-00000.371094,00000.073242,-00000.009766,-00000.019531
0000000001142,00002.568359,00001.860352,00002.128906,00002.758789,00002.690430,00002.656250,00002.705078,00003.334961,00002.792969,00002.094727,-00000.312500,00000.048828,-00000.366211,00000.078125,-00000.009766,-00000.019531
0000000001143,00002.568359,00001.860352,00002.128906,00002.758789,00002.685547,00002.656250,00002.705078,00003.330078,00002.792969,00002.089844,-00000.312500,00000.048828,-00000.366211,00000.078125,-00000.009766,-00000.019531
0000000001144,00002.568359,00001.860352,00002.128906,00002.753906,00002.685547,00002.656250,00002.700195,00003.334961,00002.788086,00002.094727,-00000.312500,00000.048828,-00000.366211,00000.078125,-00000.009766,-00000.024414
0000000001145,00002.563477,00001.865234,00002.124023,00002.758789,00002.690430,00002.646484,00002.705078,00003.325195,00002.792969,00002.089844,-00000.312500,00000.048828,-00000.366211,00000.078125,-00000.009766,-00000.024414
0000000001146,00002.563477,00001.860352,00002.124023,00002.753906,00002.690430,00002.651367,00002.705078,00003.325195,00002.792969,00002.089844,-00000.312500,00000.048828,-00000.366211,00000.083008,-00000.009766,-00000.024414
0000000001147,00002.563477,00001.860352,00002.124023,00002.758789,00002.685547,00002.651367,00002.705078,00003.330078,00002.788086,00002.094727,-00000.312500,00000.048828,-00000.371094,00000.078125,-00000.009766,-00000.024414
0000000001148,00002.563477,00001.860352,00002.124023,00002.758789,00002.685547,00002.646484,00002.705078,00003.325195,00002.792969,00002.089844,-00000.312500,00000.048828,-00000.371094,00000.078125,-00000.009766,-00000.024414
0000000001149,00002.563477,00001.860352,00002.124023,00002.758789,00002.685547,00002.651367,00002.705078,00003.330078,00002.792969,00002.089844,-00000.312500,00000.048828,-00000.371094,00000.078125,-00000.014648,-00000.019531
0000000001150,00002.563477,00001.860352,00002.128906,00002.753906,00002.690430,00002.651367,00002.705078,00003.334961,00002.788086,00002.094727,-00000.307617,00000.048828,-00000.371094,00000.073242,-00000.014648,-00000.024414
0000000001151,00002.563477,00001.860352,00002.128906,00002.753906,00002.690430,00002.646484,00002.705078,00003.330078,00002.788086,00002.089844,-00000.312500,00000.048828,-00000.371094,00000.073242,-00000.014648,-00000.024414
0000000001152,00002.563477,00001.865234,00002.124023,00002.763672,00002.690430,00002.651367,00002.709961,00003.330078,00002.792969,00002.094727,-00000.312500,00000.043945,-00000.371094,00000.073242,-00000.014648,-00000.024414
0000000001153,00002.568359,00001.860352,00002.128906,00002.758789,00002.685547,00002.656250,00002.705078,00003.334961,00002.788086,00002.094727,-00000.312500,00000.043945,-00000.375977,00000.073242,-00000.014648,-00000.024414
0000000001154,00002.563477,00001.865234,00002.124023,00002.758789,00002.690430,00002.646484,00002.709961,00003.330078,00002.792969,00002.089844,-00000.312500,00000.043945,-00000.375977,00000.073242,-00000.014648,-00000.024414
0000000001155,00002.563477,00001.865234,00002.124023,00002.763672,00002.685547,00002.656250,00002.705078,00003.330078,00002.792969,00002.089844,-00000.307617,00000.043945,-00000.371094,00000.073242,-00000.014648,-00000.024414
0000000001156,00002.563477,00001.860352,00002.124023,00002.753906,00002.685547,00002.646484,00002.705078,00003.325195,00002.792969,00002.089844,-00000.312500,00000.043945,-00000.371094,00000.073242,-00000.014648,-00000.024414
0000000001157,00002.573242,00001.860352,00002.128906,00002.763672,00002.690430,00002.656250,00002.705078,00003.334961,00002.788086,00002.094727,-00000.312500,00000.048828,-00000.371094,00000.073242,-00000.014648,-00000.024414
0000000001158,00002.568359,00001.855469,00002.128906,00002.758789,00002.685547,00002.651367,00002.700195,00003.334961,00002.788086,00002.094727,-00000.307617,00000.048828,-00000.371094,00000.078125,-00000.009766,-00000.024414
0000000001159,00002.568359,00001.860352,00002.128906,00002.758789,00002.690430,00002.651367,00002.705078,00003.330078,00002.788086,00002.094727,-00000.312500,00000.048828,-00000.371094,00000.078125,-00000.009766,-00000.024414
0000000001160,00002.568359,00001.865234,00002.124023,00002.763672,00002.690430,00002.651367,00002.709961,00003.330078,00002.792969,00002.094727,-00000.312500,00000.048828,-00000.366211,00000.078125,-00000.009766,-00000.024414
0000000001161,00002.573242,00001.860352,00002.128906,00002.758789,00002.690430,00002.656250,00002.705078,00003.334961,00002.792969,00002.094727,-00000.312500,00000.048828,-00000.371094,00000.073242,-00000.009766,-00000.024414
0000000001162,00002.568359,00001.860352,00002.124023,00002.758789,00002.685547,00002.656250,00002.705078,00003.334961,00002.792969,00002.094727,-00000.307617,00000.043945,-00000.371094,00000.073242,-00000.014648,-00000.024414
0000000001163,00002.563477,00001.865234,00002.124023,00002.758789,00002.685547,00002.651367,00002.705078,00003.330078,00002.792969,00002.089844,-00000.312500,00000.043945,-00000.371094,00000.073242,-00000.009766,-00000.024414
0000000001164,00002.563477,00001.860352,00002.124023,00002.763672,00002.685547,00002.656250,00002.705078,00003.330078,00002.792969,00002.089844,-00000.312500,00000.043945,-00000.375977,00000.073242,-00000.009766,-00000.024414
0000000001165,00002.558594,00001.860352,00002.124023,00002.753906,00002.690430,00002.651367,00002.709961,00003.330078,00002.792969,00002.094727,-00000.312500,00000.043945,-00000.371094,00000.073242,-00000.014648,-00000.024414
0000000001166,00002.558594,00001.865234,00002.128906,00002.753906,00002.690430,00002.651367,00002.709961,00003.334961,00002.792969,00002.089844,-00000.312500,00000.043945,-00000.375977,00000.073242,-00000.014648,-00000.024414
0000000001167,00002.558594,00001.855469,00002.128906,00002.753906,00002.690430,00002.651367,00002.709961,00003.330078,00002.792969,00002.094727,-00000.312500,00000.043945,-00000.371094,00000.073242,-00000.014648,-00000.024414
0000000001168,00002.558594,00001.860352,00002.124023,00002.758789,00002.685547,00002.651367,00002.705078,00003.330078,00002.792969,00002.089844,-00000.307617,00000.043945,-00000.371094,00000.078125,-00000.009766,-00000.024414
0000000001169,00002.558594,00001.865234,00002.124023,00002.753906,00002.690430,00002.651367,00002.709961,00003.330078,00002.792969,00002.089844,-00000.312500,00000.043945,-00000.371094,00000.078125,-00000.009766,-00000.024414
0000000001170,00002.563477,00001.860352,00002.124023,00002.758789,00002.685547,00002.651367,00002.705078,00003.330078,00002.792969,00002.089844,-00000.312500,00000.043945,-00000.371094,00000.078125,-00000.009766,-00000.024414
0000000001171,00002.563477,00001.865234,00002.124023,00002.753906,00002.690430,00002.646484,00002.705078,00003.330078,00002.792969,00002.089844,-00000.312500,00000.039063,-00000.371094,00000.078125,-00000.009766,-00000.019531
0000000001172,00002.563477,00001.860352,00002.128906,00002.753906,00002.690430,00002.651367,00002.705078,00003.334961,00002.788086,00002.089844,-00000.312500,00000.043945,-00000.371094,00000.073242,-00000.004883,-00000.024414
0000000001173,00002.563477,00001.860352,00002.128906,00002.753906,00002.685547,00002.656250,00002.700195,00003.334961,00002.792969,00002.089844,-00000.312500,00000.039063,-00000.371094,00000.073242,-00000.009766,-00000.019531
0000000001174,00002.563477,00001.860352,00002.124023,00002.753906,00002.680664,00002.651367,00002.705078,00003.330078,00002.792969,00002.089844,-00000.312500,00000.043945,-00000.371094,00000.073242,-00000.009766,-00000.024414
0000000001175,00002.568359,00001.860352,00002.128906,00002.753906,00002.690430,00002.656250,00002.705078,00003.334961,00002.792969,00002.094727,-00000.312500,00000.043945,-00000.371094,00000.073242,-00000.009766,-00000.024414
0000000001176,00002.558594,00001.860352,00002.124023,00002.753906,00002.685547,00002.651367,00002.705078,00003.330078,00002.792969,00002.089844,-00000.312500,00000.039063,-00000.375977,00000.073242,-00000.009766,-00000.024414
0000000001177,00002.558594,00001.860352,00002.124023,00002.758789,00002.685547,00002.651367,00002.705078,00003.330078,00002.792969,00002.089844,-00000.312500,00000.039063,-00000.371094,00000.073242,-00000.009766,-00000.024414
0000000001178,00002.563477,00001.860352,00002.124023,00002.758789,00002.685547,00002.656250,00002.700195,00003.330078,00002.788086,00002.089844,-00000.312500,00000.039063,-00000.375977,00000.078125,-00000.009766,-00000.024414
0000000001179,00002.563477,00001.860352,00002.124023,00002.758789,00002.685547,00002.656250,00002.705078,00003.330078,00002.792969,00002.089844,-00000.312500,00000.039063,-00000.371094,00000.078125,-00000.009766,-00000.024414
0000000001180,00002.563477,00001.865234,00002.124023,00002.753906,00002.685547,00002.651367,00002.705078,00003.330078,00002.792969,00002.089844,-00000.312500,00000.043945,-00000.371094,00000.078125,-00000.009766,-00000.024414
0000000001181,00002.563477,00001.860352,00002.124023,00002.758789,00002.685547,00002.656250,00002.705078,00003.330078,00002.792969,00002.089844,-00000.312500,00000.043945,-00000.366211,00000.078125,-00000.009766,-00000.024414
0000000001182,00002.563477,00001.860352,00002.128906,00002.749023,00002.690430,00002.646484,00002.705078,00003.334961,00002.788086,00002.094727,-00000.312500,00000.043945,-00000.371094,00000.078125,-00000.009766,-00000.024414
0000000001183,00002.558594,00001.860352,00002.128906,00002.753906,00002.690430,00002.651367,00002.709961,00003.330078,00002.792969,00002.094727,-00000.312500,00000.043945,-00000.371094,00000.073242,-00000.009766,-00000.024414
0000000001184,00002.563477,00001.860352,00002.128906,00002.753906,00002.690430,00002.646484,00002.705078,00003.330078,00002.788086,00002.094727,-00000.312500,00000.043945,-00000.371094,00000.078125,-00000.009766,-00000.024414
0000000001185,00002.563477,00001.855469,00002.124023,00002.749023,00002.685547,00002.646484,00002.700195,00003.330078,00002.788086,00002.089844,-00000.312500,00000.039063,-00000.371094,00000.078125,-00000.009766,-00000.024414
0000000001186,00002.568359,00001.860352,00002.128906,00002.753906,00002.685547,00002.651367,00002.700195,00003.330078,00002.788086,00002.089844,-00000.312500,00000.043945,-00000.371094,00000.078125,-00000.004883,-00000.024414
0000000001187,00002.568359,00001.860352,00002.128906,00002.758789,00002.685547,00002.656250,00002.705078,00003.330078,00002.788086,00002.089844,-00000.312500,00000.043945,-00000.371094,00000.078125,-00000.009766,-00000.024414
0000000001188,00002.568359,00001.860352,00002.128906,00002.758789,00002.685547,00002.656250,00002.700195,00003.334961,00002.792969,00002.094727,-00000.312500,00000.043945,-00000.366211,00000.078125,-00000.009766,-00000.024414
0000000001189,00002.563477,00001.860352,00002.124023,00002.758789,00002.685547,00002.656250,00002.705078,00003.334961,00002.792969,00002.094727,-00000.312500,00000.043945,-00000.366211,00000.078125,-00000.009766,-00000.024414
0000000001190,00002.563477,00001.860352,00002.124023,00002.758789,00002.685547,00002.651367,00002.705078,00003.325195,00002.792969,00002.089844,-00000.312500,00000.043945,-00000.366211,00000.078125,-00000.009766,-00000.024414
0000000001191,00002.568359,00001.860352,00002.128906,00002.763672,00002.690430,00002.656250,00002.705078,00003.334961,00002.792969,00002.094727,-00000.312500,00000.043945,-00000.366211,00000.078125,-00000.009766,-00000.024414
0000000001192,00002.568359,00001.860352,00002.128906,00002.758789,00002.685547,00002.656250,00002.705078,00003.334961,00002.792969,00002.094727,-00000.312500,00000.043945,-00000.371094,00000.078125,-00000.009766,-00000.024414
0000000001193,00002.568359,00001.860352,00002.128906,00002.758789,00002.690430,00002.651367,00002.709961,00003.339844,00002.792969,00002.099609,-00000.312500,00000.043945,-00000.366211,00000.078125,-00000.004883,-00000.024414
0000000001194,00002.568359,00001.865234,00002.124023,00002.763672,00002.690430,00002.656250,00002.705078,00003.334961,00002.792969,00002.094727,-00000.312500,00000.039063,-00000.371094,00000.078125,-00000.009766,-00000.024414
0000000001195,00002.568359,00001.860352,00002.124023,00002.758789,00002.690430,00002.656250,00002.705078,00003.334961,00002.788086,00002.094727,-00000.312500,00000.039063,-00000.371094,00000.073242,-00000.009766,-00000.024414
0000000001196,00002.568359,00001.860352,00002.124023,00002.763672,00002.685547,00002.656250,00002.705078,00003.330078,00002.797852,00002.094727,-00000.312500,00000.043945,-00000.371094,00000.073242,-00000.009766,-00000.024414
0000000001197,00002.568359,00001.865234,00002.124023,00002.763672,00002.690430,00002.651367,00002.705078,00003.330078,00002.792969,00002.094727,-00000.312500,00000.043945,-00000.366211,00000.073242,-00000.014648,-00000.024414
0000000001198,00002.568359,00001.865234,00002.128906,00002.763672,00002.695313,00002.656250,00002.714844,00003.334961,00002.797852,00002.099609,-00000.307617,00000.043945,-00000.366211,00000.078125,-00000.009766,-00000.024414
0000000001199,00002.568359,00001.865234,00002.124023,00002.763672,00002.690430,00002.651367,00002.709961,00003.330078,00002.797852,00002.094727,-00000.307617,00000.043945,-00000.371094,00000.078125,-00000.009766,-00000.024414
0000000001200,00002.563477,00001.860352,00002.124023,00002.758789,00002.690430,00002.651367,00002.705078,00003.330078,00002.792969,00002.094727,-00000.312500,00000.043945,-00000.371094,00000.078125,-00000.009766,-00000.024414
0000000001201,00002.568359,00001.865234,00002.124023,00002.763672,00002.690430,00002.651367,00002.709961,00003.330078,00002.797852,00002.094727,-00000.312500,00000.043945,-00000.371094,00000.078125,-00000.009766,-00000.024414
0000000001202,00002.568359,00001.865234,00002.128906,00002.758789,00002.695313,00002.656250,00002.709961,00003.334961,00002.792969,00002.099609,-00000.312500,00000.043945,-00000.371094,00000.078125,-00000.004883,-00000.024414
0000000001203,00002.568359,00001.860352,00002.128906,00002.758789,00002.690430,00002.656250,00002.705078,00003.334961,00002.788086,00002.099609,-00000.307617,00000.043945,-00000.371094,00000.078125,-00000.004883,-00000.024414
0000000001204,00002.568359,00001.860352,00002.124023,00002.758789,00002.685547,00002.651367,00002.700195,00003.334961,00002.788086,00002.094727,-00000.307617,00000.043945,-00000.371094,00000.078125,-00000.004883,-00000.024414
0000000001205,00002.563477,00001.860352,00002.124023,00002.753906,00002.690430,00002.646484,00002.705078,00003.330078,00002.788086,00002.089844,-00000.307617,00000.043945,-00000.371094,00000.073242,-00000.009766,-00000.024414
0000000001206,00002.563477,00001.860352,00002.128906,00002.753906,00002.690430,00002.651367,00002.705078,00003.334961,00002.788086,00002.094727,-00000.307617,00000.043945,-00000.371094,00000.073242,-00000.009766,-00000.024414
0000000001207,00002.558594,00001.865234,00002.124023,00002.753906,00002.690430,00002.651367,00002.709961,00003.330078,00002.792969,00002.094727,-00000.307617,00000.043945,-00000.375977,00000.068359,-00000.009766,-00000.024414
0000000001208,00002.563477,00001.860352,00002.128906,00002.753906,00002.685547,00002.651367,00002.700195,00003.334961,00002.788086,00002.089844,-00000.307617,00000.043945,-00000.371094,00000.073242,-00000.009766,-00000.024414
0000000001209,00002.558594,00001.860352,00002.124023,00002.753906,00002.685547,00002.651367,00002.705078,00003.325195,00002.792969,00002.089844,-00000.307617,00000.043945,-00000.371094,00000.078125,-00000.009766,-00000.024414
0000000001210,00002.553711,00001.860352,00002.124023,00002.749023,00002.685547,00002.646484,00002.705078,00003.325195,00002.792969,00002.089844,-00000.302734,00000.048828,-00000.366211,00000.078125,-00000.009766,-00000.024414
0000000001211,00002.558594,00001.865234,00002.128906,00002.749023,00002.690430,00002.646484,00002.709961,00003.330078,00002.788086,00002.094727,-00000.307617,00000.043945,-00000.366211,00000.078125,-00000.004883,-00000.024414
0000000001212,00002.563477,00001.860352,00002.128906,00002.749023,00002.685547,00002.651367,00002.705078,00003.334961,00002.788086,00002.094727,-00000.307617,00000.043945,-00000.371094,00000.073242,-00000.004883,-00000.024414
0000000001213,00002.558594,00001.865234,00002.124023,00002.753906,00002.690430,00002.651367,00002.705078,00003.330078,00002.792969,00002.089844,-00000.307617,00000.043945,-00000.371094,00000.073242,-00000.004883,-00000.024414
0000000001214,00002.563477,00001.860352,00002.128906,00002.749023,00002.690430,00002.651367,00002.705078,00003.334961,00002.788086,00002.094727,-00000.307617,00000.043945,-00000.371094,00000.073242,-00000.009766,-00000.024414
0000000001215,00002.563477,00001.860352,00002.128906,00002.753906,00002.685547,00002.651367,00002.705078,00003.330078,00002.788086,00002.089844,-00000.307617,00000.043945,-00000.366211,00000.073242,-00000.009766,-00000.024414
0000000001216,00002.563477,00001.860352,00002.124023,00002.753906,00002.685547,00002.656250,00002.705078,00003.330078,00002.788086,00002.089844,-00000.307617,00000.043945,-00000.371094,00000.078125,-00000.009766,-00000.024414
0000000001217,00002.558594,00001.860352,00002.124023,00002.749023,00002.690430,00002.651367,00002.705078,00003.325195,00002.788086,00002.089844,-00000.307617,00000.048828,-00000.366211,00000.073242,-00000.009766,-00000.024414
0000000001218,00002.558594,00001.865234,00002.128906,00002.758789,00002.695313,00002.651367,00002.709961,00003.330078,00002.792969,00002.089844,-00000.307617,00000.048828,-00000.366211,00000.073242,-00000.009766,-00000.024414
0000000001219,00002.563477,00001.860352,00002.124023,00002.758789,00002.685547,00002.651367,00002.705078,00003.325195,00002.788086,00002.084961,-00000.307617,00000.048828,-00000.366211,00000.073242,-00000.009766,-00000.024414
0000000001220,00002.568359,00001.860352,00002.128906,00002.758789,00002.685547,00002.656250,00002.705078,00003.330078,00002.788086,00002.094727,-00000.307617,00000.048828,-00000.366211,00000.073242,-00000.009766,-00000.024414
0000000001221,00002.563477,00001.865234,00002.124023,00002.763672,00002.690430,00002.651367,00002.709961,00003.325195,00002.792969,00002.089844,-00000.307617,00000.048828,-00000.366211,00000.078125,-00000.009766,-00000.024414
0000000001222,00002.568359,00001.860352,00002.128906,00002.753906,00002.690430,00002.651367,00002.700195,00003.334961,00002.783203,00002.089844,-00000.307617,00000.048828,-00000.366211,00000.078125,-00000.009766,-00000.024414
0000000001223,00002.563477,00001.865234,00002.128906,00002.758789,00002.690430,00002.646484,00002.709961,00003.330078,00002.792969,00002.089844,-00000.307617,00000.048828,-00000.371094,00000.073242,-00000.009766,-00000.019531
0000000001224,00002.568359,00001.860352,00002.128906,00002.758789,00002.685547,00002.651367,00002.705078,00003.330078,00002.788086,00002.094727,-00000.307617,00000.048828,-00000.366211,00000.073242,-00000.009766,-00000.019531
0000000001225,00002.568359,00001.865234,00002.128906,00002.758789,00002.690430,00002.651367,00002.709961,00003.330078,00002.792969,00002.094727,-00000.307617,00000.048828,-00000.371094,00000.073242,-00000.009766,-00000.019531
0000000001226,00002.573242,00001.860352,00002.128906,00002.758789,00002.685547,00002.651367,00002.700195,00003.334961,00002.788086,00002.094727,-00000.307617,00000.043945,-00000.371094,00000.073242,-00000.009766,-00000.019531
0000000001227,00002.568359,00001.860352,00002.124023,00002.758789,00002.685547,00002.656250,00002.700195,00003.330078,00002.788086,00002.089844,-00000.307617,00000.043945,-00000.371094,00000.073242,-00000.004883,-00000.024414
0000000001228,00002.573242,00001.860352,00002.133789,00002.758789,00002.690430,00002.656250,00002.705078,00003.339844,00002.792969,00002.094727,-00000.307617,00000.043945,-00000.366211,00000.073242,-00000.004883,-00000.019531
0000000001229,00002.568359,00001.865234,00002.124023,00002.763672,00002.690430,00002.656250,00002.705078,00003.330078,00002.792969,00002.089844,-00000.307617,00000.048828,-00000.366211,00000.073242,-00000.009766,-00000.024414
0000000001230,00002.568359,00001.865234,00002.124023,00002.763672,00002.690430,00002.651367,00002.709961,00003.330078,00002.797852,00002.094727,-00000.307617,00000.048828,-00000.366211,00000.073242,-00000.004883,-00000.019531
0000000001231,00002.573242,00001.860352,00002.128906,00002.758789,00002.685547,00002.651367,00002.705078,00003.330078,00002.788086,00002.089844,-00000.307617,00000.048828,-00000.366211,00000.078125,-00000.009766,-00000.019531
0000000001232,00002.568359,00001.860352,00002.124023,00002.758789,00002.685547,00002.651367,00002.705078,00003.330078,00002.788086,00002.089844,-00000.312500,00000.048828,-00000.366211,00000.073242,-00000.009766,-00000.019531
0000000001233,00002.573242,00001.860352,00002.128906,00002.758789,00002.690430,00002.651367,00002.705078,00003.334961,00002.783203,00002.094727,-00000.307617,00000.048828,-00000.366211,00000.073242,-00000.009766,-00000.019531
0000000001234,00002.568359,00001.865234,00002.128906,00002.763672,00002.695313,00002.656250,00002.709961,00003.334961,00002.792969,00002.094727,-00000.307617,00000.048828,-00000.366211,00000.073242,-00000.009766,-00000.024414
0000000001235,00002.573242,00001.860352,00002.128906,00002.758789,00002.690430,00002.651367,00002.705078,00003.334961,00002.783203,00002.094727,-00000.307617,00000.048828,-00000.366211,00000.073242,-00000.009766,-00000.024414
0000000001236,00002.568359,00001.865234,00002.124023,00002.758789,00002.690430,00002.646484,00002.709961,00003.330078,00002.792969,00002.089844,-00000.307617,00000.043945,-00000.371094,00000.073242,-00000.009766,-00000.024414
0000000001237,00002.573242,00001.860352,00002.128906,00002.758789,00002.685547,00002.656250,00002.705078,00003.334961,00002.788086,00002.089844,-00000.312500,00000.043945,-00000.366211,00000.073242,-00000.004883,-00000.024414
0000000001238,00002.573242,00001.860352,00002.128906,00002.758789,00002.685547,00002.651367,00002.700195,00003.330078,00002.788086,00002.094727,-00000.312500,00000.043945,-00000.366211,00000.078125,-00000.004883,-00000.019531
0000000001239,00002.573242,00001.865234,00002.124023,00002.763672,00002.685547,00002.656250,00002.705078,00003.330078,00002.792969,00002.089844,-00000.312500,00000.043945,-00000.366211,00000.078125,-00000.004883,-00000.024414
0000000001240,00002.568359,00001.860352,00002.124023,00002.763672,00002.685547,00002.651367,00002.700195,00003.330078,00002.788086,00002.089844,-00000.312500,00000.043945,-00000.366211,00000.078125,-00000.009766,-00000.024414
0000000001241,00002.568359,00001.865234,00002.124023,00002.763672,00002.685547,00002.651367,00002.705078,00003.325195,00002.788086,00002.089844,-00000.307617,00000.043945,-00000.366211,00000.078125,-00000.009766,-00000.024414
0000000001242,00002.573242,00001.860352,00002.128906,00002.758789,00002.695313,00002.651367,00002.705078,00003.334961,00002.788086,00002.094727,-00000.307617,00000.043945,-00000.366211,00000.078125,-00000.009766,-00000.024414
0000000001243,00002.568359,00001.865234,00002.124023,00002.768555,00002.685547,00002.656250,00002.709961,00003.330078,00002.797852,00002.089844,-00000.307617,00000.043945,-00000.366211,00000.078125,-00000.009766,-00000.024414
0000000001244,00002.578125,00001.860352,00002.128906,00002.763672,00002.690430,00002.656250,00002.705078,00003.339844,00002.792969,00002.089844,-00000.312500,00000.043945,-00000.366211,00000.078125,-00000.009766,-00000.024414
0000000001245,00002.573242,00001.860352,00002.128906,00002.758789,00002.690430,00002.651367,00002.705078,00003.334961,00002.788086,00002.089844,-00000.312500,00000.043945,-00000.371094,00000.078125,-00000.009766,-00000.024414
0000000001246,00002.573242,00001.860352,00002.128906,00002.758789,00002.685547,00002.651367,00002.700195,00003.334961,00002.788086,00002.089844,-00000.312500,00000.043945,-00000.371094,00000.073242,-00000.009766,-00000.019531
0000000001247,00002.573242,00001.860352,00002.128906,00002.758789,00002.690430,00002.651367,00002.705078,00003.334961,00002.788086,00002.094727,-00000.312500,00000.039063,-00000.371094,00000.073242,-00000.009766,-00000.019531
0000000001248,00002.573242,00001.860352,00002.128906,00002.758789,00002.690430,00002.651367,00002.705078,00003.334961,00002.788086,00002.089844,-00000.307617,00000.043945,-00000.371094,00000.078125,-00000.009766,-00000.024414
0000000001249,00002.558594,00001.860352,00002.124023,00002.753906,00002.690430,00002.646484,00002.709961,00003.330078,00002.792969,00002.089844,-00000.312500,00000.043945,-00000.371094,00000.078125,-00000.009766,-00000.024414
0000000001250,00002.563477,00001.865234,00002.128906,00002.753906,00002.690430,00002.651367,00002.705078,00003.330078,00002.788086,00002.094727,-00000.307617,00000.043945,-00000.371094,00000.073242,-00000.009766,-00000.024414
0000000001251,00002.563477,00001.860352,00002.124023,00002.753906,00002.680664,00002.651367,00002.705078,00003.330078,00002.792969,00002.089844,-00000.307617,00000.043945,-00000.371094,00000.073242,-00000.009766,-00000.024414
0000000001252,00002.563477,00001.860352,00002.124023,00002.749023,00002.690430,00002.646484,00002.705078,00003.330078,00002.792969,00002.089844,-00000.312500,00000.043945,-00000.366211,00000.078125,-00000.009766,-00000.024414
0000000001253,00002.558594,00001.865234,00002.128906,00002.749023,00002.690430,00002.646484,00002.705078,00003.330078,00002.792969,00002.084961,-00000.307617,00000.043945,-00000.366211,00000.078125,-00000.009766,-00000.024414
0000000001254,00002.558594,00001.865234,00002.124023,00002.753906,00002.685547,00002.651367,00002.705078,00003.330078,00002.792969,00002.084961,-00000.307617,00000.043945,-00000.371094,00000.073242,-00000.009766,-00000.019531
0000000001255,00002.558594,00001.865234,00002.124023,00002.749023,00002.690430,00002.646484,00002.705078,00003.325195,00002.792969,00002.084961,-00000.312500,00000.043945,-00000.371094,00000.073242,-00000.009766,-00000.019531
0000000001256,00002.558594,00001.860352,00002.124023,00002.749023,00002.685547,00002.646484,00002.709961,00003.325195,00002.792969,00002.089844,-00000.312500,00000.039063,-00000.371094,00000.073242,-00000.009766,-00000.019531
0000000001257,00002.563477,00001.865234,00002.128906,00002.749023,00002.690430,00002.646484,00002.705078,00003.330078,00002.792969,00002.089844,-00000.312500,00000.039063,-00000.371094,00000.068359,-00000.014648,-00000.024414
0000000001258,00002.563477,00001.860352,00002.124023,00002.753906,00002.685547,00002.651367,00002.705078,00003.330078,00002.788086,00002.089844,-00000.312500,00000.043945,-00000.371094,00000.073242,-00000.009766,-00000.024414
0000000001259,00002.563477,00001.860352,00002.124023,00002.749023,00002.685547,00002.651367,00002.700195,00003.334961,00002.788086,00002.089844,-00000.312500,00000.043945,-00000.371094,00000.073242,-00000.009766,-00000.024414
0000000001260,00002.558594,00001.865234,00002.124023,00002.749023,00002.690430,00002.646484,00002.709961,00003.330078,00002.792969,00002.089844,-00000.312500,00000.043945,-00000.371094,00000.073242,-00000.009766,-00000.024414
0000000001261,00002.568359,00001.860352,00002.124023,00002.753906,00002.685547,00002.651367,00002.700195,00003.330078,00002.792969,00002.089844,-00000.312500,00000.039063,-00000.371094,00000.073242,-00000.009766,-00000.024414
0000000001262,00002.568359,00001.860352,00002.124023,00002.753906,00002.685547,00002.656250,00002.705078,00003.330078,00002.788086,00002.089844,-00000.312500,00000.039063,-00000.371094,00000.073242,-00000.009766,-00000.019531
0000000001263,00002.563477,00001.865234,00002.124023,00002.758789,00002.685547,00002.651367,00002.705078,00003.325195,00002.792969,00002.089844,-00000.312500,00000.039063,-00000.371094,00000.073242,-00000.009766,-00000.019531
0000000001264,00002.568359,00001.860352,00002.124023,00002.749023,00002.680664,00002.651367,00002.700195,00003.330078,00002.788086,00002.089844,-00000.312500,00000.039063,-00000.371094,00000.073242,-00000.009766,-00000.019531
0000000001265,00002.573242,00001.865234,00002.124023,00002.758789,00002.685547,00002.656250,00002.705078,00003.334961,00002.792969,00002.089844,-00000.312500,00000.039063,-00000.371094,00000.073242,-00000.009766,-00000.019531
0000000001266,00002.563477,00001.865234,00002.128906,00002.753906,00002.690430,00002.651367,00002.705078,00003.330078,00002.792969,00002.094727,-00000.312500,00000.039063,-00000.375977,00000.068359,-00000.009766,-00000.019531
0000000001267,00002.568359,00001.860352,00002.128906,00002.749023,00002.690430,00002.651367,00002.705078,00003.330078,00002.788086,00002.089844,-00000.312500,00000.039063,-00000.375977,00000.068359,-00000.009766,-00000.024414
0000000001268,00002.563477,00001.860352,00002.119141,00002.753906,00002.685547,00002.651367,00002.705078,00003.325195,00002.792969,00002.089844,-00000.312500,00000.039063,-00000.375977,00000.068359,-00000.009766,-00000.019531
0000000001269,00002.563477,00001.860352,00002.128906,00002.749023,00002.690430,00002.646484,00002.705078,00003.330078,00002.788086,00002.089844,-00000.312500,00000.039063,-00000.375977,00000.073242,-00000.009766,-00000.024414
0000000001270,00002.568359,00001.860352,00002.124023,00002.749023,00002.680664,00002.651367,00002.700195,00003.330078,00002.783203,00002.094727,-00000.312500,00000.039063,-00000.371094,00000.073242,-00000.009766,-00000.024414
0000000001271,00002.568359,00001.860352,00002.128906,00002.749023,00002.690430,00002.651367,00002.705078,00003.334961,00002.792969,00002.094727,-00000.312500,00000.039063,-00000.371094,00000.073242,-00000.009766,-00000.024414
0000000001272,00002.568359,00001.860352,00002.128906,00002.749023,00002.690430,00002.651367,00002.700195,00003.334961,00002.788086,00002.089844,-00000.312500,00000.039063,-00000.371094,00000.073242,-00000.004883,-00000.024414
0000000001273,00002.573242,00001.860352,00002.128906,00002.758789,00002.690430,00002.656250,00002.705078,00003.334961,00002.792969,00002.089844,-00000.312500,00000.039063,-00000.371094,00000.073242,-00000.009766,-00000.024414
0000000001274,00002.568359,00001.860352,00002.128906,00002.749023,00002.685547,00002.651367,00002.705078,00003.334961,00002.788086,00002.094727,-00000.312500,00000.039063,-00000.371094,00000.073242,-00000.009766,-00000.019531
0000000001275,00002.563477,00001.860352,00002.124023,00002.758789,00002.685547,00002.651367,00002.705078,00003.330078,00002.792969,00002.089844,-00000.312500,00000.039063,-00000.371094,00000.073242,-00000.014648,-00000.019531
0000000001276,00002.568359,00001.860352,00002.128906,00002.753906,00002.685547,00002.651367,00002.700195,00003.334961,00002.788086,00002.089844,-00000.312500,00000.039063,-00000.371094,00000.068359,-00000.009766,-00000.024414
0000000001277,00002.563477,00001.860352,00002.128906,00002.749023,00002.685547,00002.646484,00002.705078,00003.330078,00002.788086,00002.094727,-00000.312500,00000.039063,-00000.371094,00000.068359,-00000.009766,-00000.019531
0000000001278,00002.568359,00001.860352,00002.128906,00002.753906,00002.690430,00002.651367,00002.705078,00003.334961,00002.788086,00002.094727,-00000.312500,00000.039063,-00000.375977,00000.068359,-00000.009766,-00000.024414
0000000001279,00002.568359,00001.860352,00002.128906,00002.749023,00002.690430,00002.651367,00002.705078,00003.334961,00002.788086,00002.094727,-00000.312500,00000.039063,-00000.371094,00000.068359,-00000.009766,-00000.024414
