0000000005130,00002.524414,00001.835938,00002.075195,00002.558594,00002.646484,00002.597656,00002.680664,00003.349609,00002.802734,00002.021484,-00000.385742,-00000.043945,-00000.473633,-00000.004883,-00000.048828,-00000.014648
0000000005131,00002.524414,00001.835938,00002.080078,00002.558594,00002.656250,00002.592773,00002.685547,00003.349609,00002.802734,00002.021484,-00000.385742,-00000.043945,-00000.473633,-00000.004883,-00000.048828,-00000.019531
0000000005132,00002.524414,00001.835938,00002.080078,00002.558594,00002.656250,00002.597656,00002.685547,00003.349609,00002.802734,00002.026367,-00000.385742,-00000.043945,-00000.473633,00000.000000,-00000.048828,-00000.019531
0000000005133,00002.524414,00001.835938,00002.080078,00002.563477,00002.651367,00002.597656,00002.685547,00003.344727,00002.807617,00002.021484,-00000.385742,-00000.043945,-00000.473633,00000.000000,-00000.048828,-00000.019531
0000000005134,00002.529297,00001.835938,00002.089844,00002.563477,00002.661133,00002.597656,00002.685547,00003.354492,00002.802734,00002.026367,-00000.385742,-00000.043945,-00000.473633,-00000.004883,-00000.053711,-00000.019531
0000000005135,00002.519531,00001.835938,00002.084961,00002.563477,00002.651367,00002.597656,00002.685547,00003.349609,00002.802734,00002.021484,-00000.385742,-00000.043945,-00000.468750,-00000.004883,-00000.058594,-00000.019531
0000000005136,00002.524414,00001.835938,00002.089844,00002.558594,00002.656250,00002.597656,00002.685547,00003.349609,00002.802734,00002.021484,-00000.380859,-00000.043945,-00000.468750,-00000.004883,-00000.058594,-00000.024414
0000000005137,00002.519531,00001.831055,00002.089844,00002.558594,00002.656250,00002.597656,00002.685547,00003.354492,00002.802734,00002.021484,-00000.380859,-00000.043945,-00000.468750,-00000.004883,-00000.058594,-00000.024414
0000000005138,00002.524414,00001.835938,00002.089844,00002.558594,00002.656250,00002.597656,00002.685547,00003.349609,00002.802734,00002.026367,-00000.380859,-00000.043945,-00000.473633,-00000.004883,-00000.058594,-00000.024414
0000000005139,00002.524414,00001.835938,00002.089844,00002.558594,00002.656250,00002.597656,00002.690430,00003.349609,00002.807617,00002.026367,-00000.380859,-00000.043945,-00000.468750,-00000.004883,-00000.058594,-00000.019531
0000000005140,00002.519531,00001.835938,00002.089844,00002.568359,00002.651367,00002.597656,00002.690430,00003.349609,00002.812500,00002.021484,-00000.380859,-00000.043945,-00000.468750,00000.000000,-00000.053711,-00000.019531
0000000005141,00002.529297,00001.835938,00002.094727,00002.558594,00002.656250,00002.602539,00002.680664,00003.354492,00002.807617,00002.026367,-00000.380859,-00000.043945,-00000.473633,-00000.004883,-00000.048828,-00000.019531
0000000005142,00002.519531,00001.835938,00002.089844,00002.558594,00002.656250,00002.597656,00002.690430,00003.349609,00002.812500,00002.021484,-00000.385742,-00000.043945,-00000.468750,00000.000000,-00000.043945,-00000.019531
0000000005143,00002.529297,00001.835938,00002.094727,00002.563477,00002.661133,00002.597656,00002.685547,00003.349609,00002.807617,00002.021484,-00000.385742,-00000.043945,-00000.468750,00000.000000,-00000.039063,-00000.019531
0000000005144,00002.519531,00001.835938,00002.089844,00002.553711,00002.656250,00002.592773,00002.685547,00003.344727,00002.802734,00002.021484,-00000.380859,-00000.043945,-00000.473633,00000.000000,-00000.043945,-00000.024414
0000000005145,00002.524414,00001.835938,00002.089844,00002.558594,00002.656250,00002.597656,00002.685547,00003.354492,00002.802734,00002.021484,-00000.380859,-00000.043945,-00000.473633,00000.000000,-00000.043945,-00000.019531
0000000005146,00002.524414,00001.835938,00002.089844,00002.563477,00002.651367,00002.602539,00002.685547,00003.349609,00002.807617,00002.021484,-00000.385742,-00000.043945,-00000.468750,-00000.004883,-00000.043945,-00000.024414
0000000005147,00002.519531,00001.835938,00002.089844,00002.558594,00002.656250,00002.592773,00002.685547,00003.349609,00002.807617,00002.021484,-00000.380859,-00000.043945,-00000.473633,-00000.004883,-00000.048828,-00000.019531
0000000005148,00002.524414,00001.835938,00002.089844,00002.558594,00002.656250,00002.597656,00002.680664,00003.349609,00002.802734,00002.021484,-00000.380859,-00000.043945,-00000.473633,-00000.004883,-00000.048828,-00000.019531
0000000005149,00002.519531,00001.831055,00002.084961,00002.558594,00002.656250,00002.592773,00002.685547,00003.349609,00002.802734,00002.026367,-00000.380859,-00000.043945,-00000.473633,-00000.009766,-00000.048828,-00000.024414
0000000005150,00002.519531,00001.831055,00002.084961,00002.558594,00002.656250,00002.592773,00002.685547,00003.349609,00002.802734,00002.021484,-00000.380859,-00000.043945,-00000.468750,-00000.009766,-00000.043945,-00000.019531
0000000005151,00002.519531,00001.831055,00002.080078,00002.553711,00002.656250,00002.592773,00002.685547,00003.354492,00002.802734,00002.026367,-00000.380859,-00000.043945,-00000.473633,-00000.009766,-00000.043945,-00000.019531
0000000005152,00002.519531,00001.835938,00002.084961,00002.558594,00002.656250,00002.592773,00002.690430,00003.349609,00002.802734,00002.026367,-00000.380859,-00000.043945,-00000.468750,-00000.009766,-00000.043945,-00000.019531
0000000005153,00002.514648,00001.835938,00002.075195,00002.558594,00002.651367,00002.587891,00002.685547,00003.339844,00002.807617,00002.016602,-00000.380859,-00000.043945,-00000.468750,-00000.009766,-00000.039063,-00000.019531
0000000005154,00002.514648,00001.835938,00002.080078,00002.558594,00002.656250,00002.592773,00002.690430,00003.349609,00002.807617,00002.016602,-00000.380859,-00000.043945,-00000.473633,-00000.009766,-00000.039063,-00000.024414
0000000005155,00002.514648,00001.831055,00002.084961,00002.553711,00002.651367,00002.592773,00002.685547,00003.349609,00002.802734,00002.021484,-00000.380859,-00000.043945,-00000.468750,-00000.014648,-00000.039063,-00000.019531
0000000005156,00002.509766,00001.835938,00002.080078,00002.558594,00002.656250,00002.592773,00002.690430,00003.349609,00002.807617,00002.021484,-00000.380859,-00000.043945,-00000.473633,-00000.014648,-00000.043945,-00000.024414
0000000005157,00002.514648,00001.835938,00002.084961,00002.558594,00002.656250,00002.592773,00002.690430,00003.349609,00002.802734,00002.026367,-00000.380859,-00000.043945,-00000.473633,-00000.019531,-00000.043945,-00000.024414
0000000005158,00002.519531,00001.831055,00002.084961,00002.553711,00002.656250,00002.592773,00002.685547,00003.354492,00002.802734,00002.021484,-00000.380859,-00000.043945,-00000.473633,-00000.019531,-00000.043945,-00000.024414
0000000005159,00002.519531,00001.831055,00002.089844,00002.558594,00002.656250,00002.592773,00002.685547,00003.354492,00002.802734,00002.021484,-00000.380859,-00000.048828,-00000.473633,-00000.014648,-00000.048828,-00000.019531
0000000005160,00002.519531,00001.835938,00002.089844,00002.558594,00002.656250,00002.592773,00002.685547,00003.354492,00002.802734,00002.021484,-00000.380859,-00000.048828,-00000.473633,-00000.014648,-00000.048828,-00000.024414
0000000005161,00002.519531,00001.835938,00002.089844,00002.558594,00002.656250,00002.597656,00002.685547,00003.354492,00002.802734,00002.026367,-00000.380859,-00000.048828,-00000.473633,-00000.014648,-00000.053711,-00000.019531
0000000005162,00002.519531,00001.835938,00002.084961,00002.563477,00002.656250,00002.597656,00002.685547,00003.354492,00002.802734,00002.021484,-00000.380859,-00000.043945,-00000.473633,-00000.014648,-00000.053711,-00000.024414
0000000005163,00002.519531,00001.831055,00002.089844,00002.558594,00002.656250,00002.592773,00002.680664,00003.349609,00002.797852,00002.016602,-00000.380859,-00000.043945,-00000.473633,-00000.014648,-00000.053711,-00000.019531
0000000005164,00002.514648,00001.835938,00002.084961,00002.558594,00002.656250,00002.592773,00002.690430,00003.349609,00002.802734,00002.021484,-00000.380859,-00000.043945,-00000.473633,-00000.014648,-00000.053711,-00000.019531
0000000005165,00002.519531,00001.835938,00002.089844,00002.558594,00002.656250,00002.597656,00002.685547,00003.359375,00002.802734,00002.021484,-00000.380859,-00000.043945,-00000.473633,-00000.014648,-00000.053711,-00000.019531
0000000005166,00002.519531,00001.831055,00002.084961,00002.558594,00002.656250,00002.592773,00002.680664,00003.354492,00002.802734,00002.021484,-00000.380859,-00000.043945,-00000.473633,-00000.009766,-00000.053711,-00000.019531
0000000005167,00002.514648,00001.835938,00002.080078,00002.558594,00002.651367,00002.597656,00002.685547,00003.344727,00002.807617,00002.021484,-00000.380859,-00000.043945,-00000.473633,-00000.009766,-00000.053711,-00000.019531
0000000005168,00002.519531,00001.835938,00002.084961,00002.563477,00002.651367,00002.602539,00002.685547,00003.349609,00002.807617,00002.021484,-00000.380859,-00000.043945,-00000.473633,-00000.009766,-00000.053711,-00000.019531
0000000005169,00002.519531,00001.835938,00002.084961,00002.563477,00002.651367,00002.602539,00002.685547,00003.354492,00002.807617,00002.021484,-00000.380859,-00000.043945,-00000.473633,-00000.009766,-00000.058594,-00000.019531
0000000005170,00002.514648,00001.840820,00002.089844,00002.558594,00002.661133,00002.597656,00002.690430,00003.354492,00002.807617,00002.016602,-00000.380859,-00000.043945,-00000.473633,-00000.009766,-00000.058594,-00000.019531
0000000005171,00002.519531,00001.831055,00002.089844,00002.558594,00002.656250,00002.597656,00002.685547,00003.354492,00002.807617,00002.026367,-00000.380859,-00000.043945,-00000.473633,-00000.014648,-00000.063477,-00000.019531
0000000005172,00002.514648,00001.835938,00002.089844,00002.558594,00002.661133,00002.597656,00002.690430,00003.354492,00002.807617,00002.026367,-00000.380859,-00000.048828,-00000.473633,-00000.014648,-00000.063477,-00000.019531
0000000005173,00002.514648,00001.835938,00002.084961,00002.563477,00002.651367,00002.597656,00002.690430,00003.349609,00002.807617,00002.016602,-00000.380859,-00000.048828,-00000.473633,-00000.014648,-00000.063477,-00000.024414
0000000005174,00002.514648,00001.835938,00002.084961,00002.563477,00002.651367,00002.597656,00002.685547,00003.344727,00002.807617,00002.016602,-00000.380859,-00000.043945,-00000.473633,-00000.009766,-00000.063477,-00000.019531
0000000005175,00002.519531,00001.835938,00002.089844,00002.558594,00002.656250,00002.597656,00002.680664,00003.354492,00002.802734,00002.026367,-00000.380859,-00000.043945,-00000.473633,-00000.009766,-00000.063477,-00000.024414
0000000005176,00002.519531,00001.835938,00002.084961,00002.558594,00002.651367,00002.597656,00002.680664,00003.354492,00002.802734,00002.021484,-00000.380859,-00000.043945,-00000.473633,-00000.009766,-00000.063477,-00000.024414
0000000005177,00002.519531,00001.835938,00002.089844,00002.558594,00002.661133,00002.597656,00002.685547,00003.354492,00002.807617,00002.026367,-00000.380859,-00000.043945,-00000.473633,-00000.009766,-00000.063477,-00000.024414
0000000005178,00002.519531,00001.835938,00002.089844,00002.558594,00002.656250,00002.597656,00002.685547,00003.359375,00002.807617,00002.026367,-00000.380859,-00000.043945,-00000.473633,-00000.014648,-00000.058594,-00000.024414
0000000005179,00002.514648,00001.835938,00002.084961,00002.563477,00002.656250,00002.597656,00002.690430,00003.354492,00002.812500,00002.021484,-00000.380859,-00000.043945,-00000.473633,-00000.014648,-00000.058594,-00000.024414
0000000005180,00002.519531,00001.835938,00002.084961,00002.558594,00002.656250,00002.602539,00002.685547,00003.354492,00002.802734,00002.021484,-00000.380859,-00000.043945,-00000.473633,-00000.009766,-00000.063477,-00000.024414
0000000005181,00002.514648,00001.835938,00002.089844,00002.563477,00002.661133,00002.597656,00002.685547,00003.354492,00002.807617,00002.021484,-00000.375977,-00000.039063,-00000.468750,-00000.009766,-00000.063477,-00000.024414
0000000005182,00002.509766,00001.835938,00002.084961,00002.563477,00002.651367,00002.597656,00002.685547,00003.349609,00002.807617,00002.016602,-00000.380859,-00000.043945,-00000.468750,-00000.009766,-00000.063477,-00000.024414
0000000005183,00002.514648,00001.831055,00002.084961,00002.563477,00002.651367,00002.597656,00002.685547,00003.354492,00002.802734,00002.026367,-00000.375977,-00000.039063,-00000.463867,-00000.014648,-00000.063477,-00000.024414
0000000005184,00002.514648,00001.840820,00002.084961,00002.563477,00002.656250,00002.602539,00002.690430,00003.349609,00002.812500,00002.021484,-00000.380859,-00000.043945,-00000.463867,-00000.014648,-00000.063477,-00000.024414
0000000005185,00002.519531,00001.835938,00002.084961,00002.563477,00002.651367,00002.602539,00002.685547,00003.354492,00002.807617,00002.021484,-00000.380859,-00000.043945,-00000.468750,-00000.014648,-00000.063477,-00000.019531
0000000005186,00002.519531,00001.835938,00002.089844,00002.558594,00002.656250,00002.597656,00002.685547,00003.354492,00002.802734,00002.026367,-00000.380859,-00000.043945,-00000.468750,-00000.009766,-00000.063477,-00000.019531
0000000005187,00002.514648,00001.831055,00002.084961,00002.558594,00002.656250,00002.597656,00002.685547,00003.354492,00002.802734,00002.021484,-00000.380859,-00000.043945,-00000.463867,-00000.004883,-00000.068359,-00000.019531
0000000005188,00002.519531,00001.831055,00002.084961,00002.558594,00002.656250,00002.592773,00002.685547,00003.354492,00002.802734,00002.026367,-00000.380859,-00000.039063,-00000.468750,00000.000000,-00000.068359,-00000.019531
0000000005189,00002.514648,00001.835938,00002.070313,00002.553711,00002.656250,00002.592773,00002.685547,00003.354492,00002.802734,00002.021484,-00000.380859,-00000.043945,-00000.468750,00000.004883,-00000.073242,-00000.014648
0000000005190,00002.514648,00001.835938,00002.060547,00002.558594,00002.651367,00002.592773,00002.685547,00003.349609,00002.807617,00002.011719,-00000.380859,-00000.043945,-00000.468750,00000.009766,-00000.068359,-00000.019531
0000000005191,00002.509766,00001.835938,00002.055664,00002.553711,00002.651367,00002.587891,00002.685547,00003.349609,00002.807617,00002.011719,-00000.380859,-00000.043945,-00000.468750,00000.009766,-00000.068359,-00000.014648
0000000005192,00002.514648,00001.831055,00002.065430,00002.553711,00002.656250,00002.592773,00002.685547,00003.354492,00002.802734,00002.016602,-00000.375977,-00000.043945,-00000.468750,00000.009766,-00000.063477,-00000.019531
0000000005193,00002.509766,00001.835938,00002.055664,00002.553711,00002.646484,00002.592773,00002.685547,00003.344727,00002.802734,00002.011719,-00000.375977,-00000.039063,-00000.463867,00000.009766,-00000.063477,-00000.014648
0000000005194,00002.504883,00001.831055,00002.060547,00002.553711,00002.656250,00002.592773,00002.685547,00003.354492,00002.807617,00002.011719,-00000.375977,-00000.043945,-00000.463867,00000.009766,-00000.063477,-00000.014648
0000000005195,00002.504883,00001.835938,00002.060547,00002.553711,00002.656250,00002.587891,00002.685547,00003.354492,00002.802734,00002.006836,-00000.380859,-00000.043945,-00000.463867,00000.009766,-00000.063477,-00000.014648
0000000005196,00002.504883,00001.835938,00002.060547,00002.548828,00002.656250,00002.592773,00002.685547,00003.354492,00002.807617,00002.016602,-00000.380859,-00000.039063,-00000.463867,00000.014648,-00000.063477,-00000.009766
0000000005197,00002.504883,00001.835938,00002.060547,00002.553711,00002.656250,00002.592773,00002.690430,00003.349609,00002.807617,00002.011719,-00000.380859,-00000.039063,-00000.463867,00000.014648,-00000.063477,-00000.009766
0000000005198,00002.509766,00001.831055,00002.065430,00002.558594,00002.651367,00002.592773,00002.685547,00003.354492,00002.802734,00002.011719,-00000.380859,-00000.043945,-00000.463867,00000.014648,-00000.063477,-00000.009766
0000000005199,00002.509766,00001.831055,00002.060547,00002.553711,00002.651367,00002.592773,00002.685547,00003.354492,00002.802734,00002.011719,-00000.380859,-00000.039063,-00000.463867,00000.014648,-00000.068359,-00000.009766
0000000005200,00002.504883,00001.835938,00002.060547,00002.548828,00002.656250,00002.587891,00002.685547,00003.349609,00002.802734,00002.006836,-00000.380859,-00000.039063,-00000.463867,00000.009766,-00000.068359,-00000.009766
0000000005201,00002.509766,00001.835938,00002.060547,00002.558594,00002.651367,00002.592773,00002.685547,00003.349609,00002.807617,00002.011719,-00000.380859,-00000.039063,-00000.463867,00000.009766,-00000.068359,-00000.009766
0000000005202,00002.514648,00001.835938,00002.065430,00002.558594,00002.651367,00002.597656,00002.685547,00003.359375,00002.807617,00002.016602,-00000.380859,-00000.039063,-00000.463867,00000.009766,-00000.063477,-00000.009766
0000000005203,00002.509766,00001.831055,00002.060547,00002.553711,00002.656250,00002.592773,00002.685547,00003.354492,00002.802734,00002.011719,-00000.380859,-00000.034180,-00000.463867,00000.004883,-00000.058594,-00000.009766
0000000005204,00002.509766,00001.835938,00002.060547,00002.553711,00002.651367,00002.592773,00002.680664,00003.354492,00002.802734,00002.011719,-00000.380859,-00000.039063,-00000.463867,00000.004883,-00000.058594,-00000.014648
0000000005205,00002.504883,00001.835938,00002.055664,00002.558594,00002.651367,00002.592773,00002.680664,00003.354492,00002.802734,00002.006836,-00000.380859,-00000.039063,-00000.463867,00000.000000,-00000.063477,-00000.014648
0000000005206,00002.504883,00001.831055,00002.060547,00002.548828,00002.656250,00002.587891,00002.685547,00003.354492,00002.802734,00002.011719,-00000.380859,-00000.039063,-00000.463867,00000.004883,-00000.063477,-00000.014648
0000000005207,00002.509766,00001.831055,00002.060547,00002.553711,00002.656250,00002.592773,00002.685547,00003.354492,00002.802734,00002.016602,-00000.380859,-00000.039063,-00000.463867,00000.009766,-00000.063477,-00000.014648
0000000005208,00002.504883,00001.835938,00002.055664,00002.558594,00002.656250,00002.592773,00002.685547,00003.354492,00002.807617,00002.016602,-00000.380859,-00000.043945,-00000.463867,00000.014648,-00000.053711,-00000.019531
0000000005209,00002.514648,00001.831055,00002.055664,00002.553711,00002.656250,00002.587891,00002.685547,00003.354492,00002.802734,00002.016602,-00000.380859,-00000.039063,-00000.463867,00000.009766,-00000.058594,-00000.019531
0000000005210,00002.514648,00001.835938,00002.060547,00002.558594,00002.651367,00002.592773,00002.685547,00003.359375,00002.807617,00002.016602,-00000.380859,-00000.039063,-00000.463867,00000.009766,-00000.063477,-00000.019531
0000000005211,00002.514648,00001.835938,00002.060547,00002.553711,00002.656250,00002.597656,00002.685547,00003.359375,00002.807617,00002.011719,-00000.380859,-00000.039063,-00000.463867,00000.009766,-00000.068359,-00000.019531
0000000005212,00002.504883,00001.835938,00002.055664,00002.558594,00002.646484,00002.592773,00002.685547,00003.349609,00002.807617,00002.006836,-00000.380859,-00000.039063,-00000.463867,00000.004883,-00000.068359,-00000.014648
0000000005213,00002.514648,00001.835938,00002.060547,00002.558594,00002.651367,00002.592773,00002.685547,00003.354492,00002.802734,00002.011719,-00000.380859,-00000.039063,-00000.468750,00000.004883,-00000.073242,-00000.014648
0000000005214,00002.504883,00001.835938,00002.055664,00002.558594,00002.651367,00002.587891,00002.685547,00003.349609,00002.807617,00002.011719,-00000.385742,-00000.039063,-00000.468750,00000.009766,-00000.068359,-00000.019531
0000000005215,00002.509766,00001.835938,00002.055664,00002.558594,00002.656250,00002.592773,00002.690430,00003.354492,00002.807617,00002.016602,-00000.385742,-00000.039063,-00000.468750,00000.009766,-00000.068359,-00000.014648
0000000005216,00002.514648,00001.835938,00002.055664,00002.558594,00002.656250,00002.597656,00002.685547,00003.359375,00002.802734,00002.016602,-00000.380859,-00000.039063,-00000.468750,00000.009766,-00000.068359,-00000.014648
0000000005217,00002.509766,00001.831055,00002.055664,00002.553711,00002.656250,00002.592773,00002.690430,00003.354492,00002.807617,00002.011719,-00000.380859,-00000.039063,-00000.468750,00000.009766,-00000.068359,-00000.014648
0000000005218,00002.509766,00001.835938,00002.055664,00002.558594,00002.656250,00002.592773,00002.685547,00003.349609,00002.807617,00002.016602,-00000.385742,-00000.043945,-00000.468750,00000.009766,-00000.068359,-00000.014648
0000000005219,00002.514648,00001.831055,00002.060547,00002.558594,00002.656250,00002.597656,00002.685547,00003.359375,00002.802734,00002.021484,-00000.380859,-00000.039063,-00000.463867,00000.009766,-00000.068359,-00000.014648
0000000005220,00002.519531,00001.835938,00002.060547,00002.558594,00002.656250,00002.597656,00002.685547,00003.354492,00002.802734,00002.021484,-00000.380859,-00000.039063,-00000.463867,00000.014648,-00000.068359,-00000.014648
0000000005221,00002.514648,00001.835938,00002.060547,00002.563477,00002.651367,00002.602539,00002.685547,00003.354492,00002.807617,00002.016602,-00000.380859,-00000.039063,-00000.463867,00000.014648,-00000.068359,-00000.014648
0000000005222,00002.509766,00001.835938,00002.055664,00002.558594,00002.656250,00002.597656,00002.685547,00003.349609,00002.812500,00002.016602,-00000.385742,-00000.043945,-00000.468750,00000.009766,-00000.073242,-00000.009766
0000000005223,00002.509766,00001.835938,00002.055664,00002.558594,00002.651367,00002.592773,00002.685547,00003.354492,00002.812500,00002.016602,-00000.385742,-00000.043945,-00000.468750,00000.004883,-00000.073242,-00000.009766
0000000005224,00002.509766,00001.835938,00002.055664,00002.563477,00002.656250,00002.597656,00002.685547,00003.354492,00002.817383,00002.021484,-00000.385742,-00000.043945,-00000.468750,00000.009766,-00000.073242,-00000.009766
0000000005225,00002.514648,00001.835938,00002.055664,00002.558594,00002.651367,00002.602539,00002.680664,00003.354492,00002.812500,00002.016602,-00000.385742,-00000.043945,-00000.468750,00000.009766,-00000.068359,-00000.009766
0000000005226,00002.514648,00001.835938,00002.055664,00002.558594,00002.646484,00002.597656,00002.685547,00003.354492,00002.817383,00002.016602,-00000.385742,-00000.043945,-00000.468750,00000.019531,-00000.063477,-00000.009766
0000000005227,00002.514648,00001.831055,00002.055664,00002.558594,00002.656250,00002.597656,00002.685547,00003.354492,00002.807617,00002.011719,-00000.385742,-00000.043945,-00000.468750,00000.019531,-00000.063477,-00000.004883
0000000005228,00002.509766,00001.835938,00002.050781,00002.558594,00002.651367,00002.592773,00002.685547,00003.349609,00002.817383,00002.011719,-00000.385742,-00000.043945,-00000.468750,00000.019531,-00000.068359,-00000.004883
0000000005229,00002.509766,00001.835938,00002.050781,00002.558594,00002.651367,00002.592773,00002.690430,00003.349609,00002.817383,00002.006836,-00000.385742,-00000.043945,-00000.468750,00000.019531,-00000.078125,-00000.004883
0000000005230,00002.509766,00001.835938,00002.050781,00002.558594,00002.651367,00002.592773,00002.680664,00003.349609,00002.812500,00002.006836,-00000.385742,-00000.043945,-00000.473633,00000.014648,-00000.083008,-00000.004883
0000000005231,00002.509766,00001.835938,00002.055664,00002.553711,00002.656250,00002.587891,00002.690430,00003.354492,00002.812500,00002.011719,-00000.385742,-00000.043945,-00000.468750,00000.014648,-00000.083008,-00000.004883
0000000005232,00002.509766,00001.835938,00002.050781,00002.553711,00002.656250,00002.587891,00002.685547,00003.354492,00002.812500,00002.016602,-00000.385742,-00000.043945,-00000.468750,00000.019531,-00000.078125,-00000.004883
0000000005233,00002.509766,00001.835938,00002.050781,00002.558594,00002.651367,00002.592773,00002.690430,00003.354492,00002.817383,00002.011719,-00000.385742,-00000.043945,-00000.468750,00000.019531,-00000.078125,-00000.004883
0000000005234,00002.509766,00001.835938,00002.045898,00002.558594,00002.656250,00002.592773,00002.690430,00003.349609,00002.817383,00002.011719,-00000.390625,-00000.043945,-00000.468750,00000.019531,-00000.078125,-00000.004883
0000000005235,00002.509766,00001.835938,00002.045898,00002.553711,00002.651367,00002.592773,00002.685547,00003.349609,00002.812500,00002.011719,-00000.390625,-00000.043945,-00000.463867,00000.019531,-00000.073242,-00000.004883
0000000005236,00002.509766,00001.835938,00002.045898,00002.558594,00002.651367,00002.597656,00002.685547,00003.354492,00002.812500,00002.011719,-00000.390625,-00000.043945,-00000.468750,00000.019531,-00000.073242,-00000.004883
0000000005237,00002.509766,00001.835938,00002.045898,00002.553711,00002.656250,00002.592773,00002.690430,00003.354492,00002.812500,00002.011719,-00000.390625,-00000.043945,-00000.463867,00000.019531,-00000.073242,-00000.004883
0000000005238,00002.509766,00001.835938,00002.045898,00002.558594,00002.656250,00002.597656,00002.685547,00003.354492,00002.817383,00002.016602,-00000.390625,-00000.043945,-00000.468750,00000.019531,-00000.068359,-00000.004883
0000000005239,00002.514648,00001.831055,00002.050781,00002.553711,00002.656250,00002.592773,00002.685547,00003.354492,00002.812500,00002.016602,-00000.390625,-00000.048828,-00000.468750,00000.019531,-00000.068359,00000.000000
0000000005240,00002.514648,00001.835938,00002.045898,00002.558594,00002.646484,00002.592773,00002.685547,00003.354492,00002.812500,00002.011719,-00000.390625,-00000.043945,-00000.473633,00000.014648,-00000.073242,00000.000000
0000000005241,00002.514648,00001.831055,00002.050781,00002.558594,00002.651367,00002.597656,00002.680664,00003.354492,00002.812500,00002.016602,-00000.390625,-00000.048828,-00000.473633,00000.009766,-00000.073242,00000.000000
0000000005242,00002.509766,00001.835938,00002.045898,00002.558594,00002.656250,00002.597656,00002.690430,00003.349609,00002.817383,00002.016602,-00000.390625,-00000.043945,-00000.473633,00000.014648,-00000.073242,00000.000000
0000000005243,00002.509766,00001.835938,00002.050781,00002.558594,00002.656250,00002.592773,00002.685547,00003.349609,00002.817383,00002.011719,-00000.390625,-00000.043945,-00000.468750,00000.014648,-00000.068359,00000.000000
0000000005244,00002.509766,00001.835938,00002.045898,00002.558594,00002.651367,00002.597656,00002.680664,00003.354492,00002.817383,00002.016602,-00000.390625,-00000.048828,-00000.468750,00000.014648,-00000.068359,00000.000000
0000000005245,00002.509766,00001.835938,00002.045898,00002.558594,00002.656250,00002.592773,00002.685547,00003.349609,00002.817383,00002.016602,-00000.390625,-00000.048828,-00000.473633,00000.014648,-00000.063477,00000.000000
0000000005246,00002.514648,00001.835938,00002.055664,00002.558594,00002.656250,00002.597656,00002.685547,00003.354492,00002.817383,00002.021484,-00000.390625,-00000.048828,-00000.468750,00000.014648,-00000.068359,00000.000000
0000000005247,00002.509766,00001.835938,00002.050781,00002.553711,00002.656250,00002.592773,00002.690430,00003.354492,00002.822266,00002.021484,-00000.390625,-00000.043945,-00000.468750,00000.014648,-00000.068359,-00000.004883
0000000005248,00002.514648,00001.835938,00002.050781,00002.558594,00002.661133,00002.597656,00002.685547,00003.359375,00002.817383,00002.021484,-00000.390625,-00000.048828,-00000.468750,00000.014648,-00000.063477,-00000.004883
0000000005249,00002.514648,00001.835938,00002.050781,00002.558594,00002.656250,00002.597656,00002.690430,00003.354492,00002.822266,00002.016602,-00000.390625,-00000.048828,-00000.468750,00000.019531,-00000.053711,00000.000000
0000000005250,00002.514648,00001.835938,00002.045898,00002.553711,00002.656250,00002.597656,00002.685547,00003.354492,00002.817383,00002.016602,-00000.390625,-00000.048828,-00000.468750,00000.014648,-00000.048828,00000.000000
0000000005251,00002.514648,00001.840820,00002.050781,00002.558594,00002.656250,00002.597656,00002.690430,00003.354492,00002.827148,00002.016602,-00000.390625,-00000.048828,-00000.468750,00000.014648,-00000.048828,00000.000000
0000000005252,00002.514648,00001.835938,00002.050781,00002.558594,00002.656250,00002.597656,00002.690430,00003.349609,00002.827148,00002.016602,-00000.390625,-00000.048828,-00000.473633,00000.014648,-00000.053711,00000.000000
0000000005253,00002.519531,00001.835938,00002.050781,00002.563477,00002.651367,00002.597656,00002.685547,00003.354492,00002.827148,00002.016602,-00000.390625,-00000.048828,-00000.468750,00000.014648,-00000.053711,00000.000000
0000000005254,00002.509766,00001.835938,00002.050781,00002.563477,00002.656250,00002.597656,00002.685547,00003.349609,00002.832031,00002.016602,-00000.390625,-00000.048828,-00000.473633,00000.014648,-00000.053711,00000.000000
0000000005255,00002.514648,00001.835938,00002.050781,00002.558594,00002.656250,00002.592773,00002.685547,00003.349609,00002.822266,00002.021484,-00000.390625,-00000.048828,-00000.468750,00000.019531,-00000.053711,00000.000000
0000000005256,00002.519531,00001.835938,00002.050781,00002.563477,00002.656250,00002.602539,00002.685547,00003.354492,00002.832031,00002.021484,-00000.390625,-00000.048828,-00000.468750,00000.019531,-00000.053711,00000.000000
0000000005257,00002.514648,00001.835938,00002.041016,00002.558594,00002.656250,00002.597656,00002.685547,00003.349609,00002.827148,00002.021484,-00000.390625,-00000.048828,-00000.468750,00000.019531,-00000.058594,00000.000000
0000000005258,00002.509766,00001.840820,00002.031250,00002.563477,00002.656250,00002.597656,00002.685547,00003.349609,00002.832031,00002.016602,-00000.390625,-00000.048828,-00000.468750,00000.019531,-00000.058594,-00000.004883
0000000005259,00002.519531,00001.835938,00002.041016,00002.563477,00002.656250,00002.602539,00002.685547,00003.354492,00002.827148,00002.016602,-00000.385742,-00000.048828,-00000.468750,00000.019531,-00000.058594,00000.000000
0000000005260,00002.519531,00001.835938,00002.036133,00002.563477,00002.656250,00002.602539,00002.685547,00003.354492,00002.827148,00002.021484,-00000.390625,-00000.043945,-00000.468750,00000.019531,-00000.058594,-00000.004883
0000000005261,00002.519531,00001.835938,00002.036133,00002.563477,00002.656250,00002.602539,00002.685547,00003.354492,00002.832031,00002.021484,-00000.385742,-00000.048828,-00000.463867,00000.019531,-00000.053711,-00000.004883
0000000005262,00002.514648,00001.835938,00002.036133,00002.558594,00002.656250,00002.592773,00002.685547,00003.349609,00002.827148,00002.016602,-00000.385742,-00000.043945,-00000.468750,00000.019531,-00000.048828,-00000.004883
0000000005263,00002.514648,00001.835938,00002.031250,00002.563477,00002.656250,00002.597656,00002.690430,00003.349609,00002.832031,00002.016602,-00000.390625,-00000.043945,-00000.468750,00000.019531,-00000.048828,-00000.004883
0000000005264,00002.509766,00001.835938,00002.031250,00002.563477,00002.656250,00002.597656,00002.685547,00003.349609,00002.832031,00002.016602,-00000.385742,-00000.048828,-00000.463867,00000.019531,-00000.043945,-00000.004883
0000000005265,00002.519531,00001.840820,00002.031250,00002.568359,00002.661133,00002.597656,00002.690430,00003.349609,00002.836914,00002.021484,-00000.390625,-00000.048828,-00000.468750,00000.019531,-00000.039063,-00000.004883
0000000005266,00002.514648,00001.835938,00002.031250,00002.558594,00002.656250,00002.597656,00002.685547,00003.354492,00002.827148,00002.021484,-00000.390625,-00000.043945,-00000.463867,00000.019531,-00000.029297,-00000.004883
0000000005267,00002.514648,00001.835938,00002.026367,00002.563477,00002.656250,00002.597656,00002.690430,00003.349609,00002.836914,00002.016602,-00000.390625,-00000.048828,-00000.463867,00000.019531,-00000.029297,-00000.004883
0000000005268,00002.519531,00001.835938,00002.031250,00002.568359,00002.651367,00002.602539,00002.685547,00003.354492,00002.832031,00002.016602,-00000.390625,-00000.043945,-00000.463867,00000.024414,-00000.029297,-00000.004883
0000000005269,00002.519531,00001.835938,00002.031250,00002.558594,00002.661133,00002.602539,00002.690430,00003.354492,00002.832031,00002.021484,-00000.390625,-00000.043945,-00000.463867,00000.019531,-00000.034180,-00000.004883
0000000005270,00002.514648,00001.835938,00002.026367,00002.558594,00002.656250,00002.597656,00002.690430,00003.349609,00002.832031,00002.016602,-00000.390625,-00000.048828,-00000.463867,00000.019531,-00000.039063,-00000.004883
0000000005271,00002.514648,00001.835938,00002.026367,00002.558594,00002.651367,00002.597656,00002.685547,00003.349609,00002.832031,00002.016602,-00000.385742,-00000.043945,-00000.463867,00000.014648,-00000.039063,-00000.004883
0000000005272,00002.504883,00001.835938,00002.026367,00002.558594,00002.651367,00002.592773,00002.685547,00003.349609,00002.832031,00002.016602,-00000.390625,-00000.043945,-00000.463867,00000.014648,-00000.039063,-00000.004883
0000000005273,00002.509766,00001.835938,00002.026367,00002.563477,00002.651367,00002.602539,00002.685547,00003.349609,00002.832031,00002.016602,-00000.385742,-00000.043945,-00000.463867,00000.014648,-00000.034180,-00000.004883
0000000005274,00002.509766,00001.835938,00002.026367,00002.563477,00002.651367,00002.597656,00002.685547,00003.349609,00002.827148,00002.016602,-00000.385742,-00000.043945,-00000.463867,00000.014648,-00000.034180,-00000.004883
0000000005275,00002.509766,00001.835938,00002.026367,00002.563477,00002.656250,00002.592773,00002.685547,00003.349609,00002.832031,00002.016602,-00000.385742,-00000.043945,-00000.468750,00000.014648,-00000.039063,-00000.004883
0000000005276,00002.509766,00001.835938,00002.031250,00002.563477,00002.656250,00002.597656,00002.690430,00003.349609,00002.832031,00002.016602,-00000.385742,-00000.043945,-00000.468750,00000.009766,-00000.039063,-00000.004883
0000000005277,00002.509766,00001.835938,00002.026367,00002.558594,00002.656250,00002.597656,00002.685547,00003.349609,00002.832031,00002.011719,-00000.385742,-00000.043945,-00000.463867,00000.014648,-00000.039063,-00000.004883
0000000005278,00002.514648,00001.831055,00002.031250,00002.558594,00002.656250,00002.597656,00002.680664,00003.354492,00002.822266,00002.016602,-00000.385742,-00000.043945,-00000.463867,00000.014648,-00000.034180,-00000.004883
0000000005279,00002.509766,00001.835938,00002.026367,00002.563477,00002.656250,00002.597656,00002.690430,00003.349609,00002.832031,00002.016602,-00000.385742,-00000.043945,-00000.463867,00000.014648,-00000.034180,-00000.004883
0000000005280,00002.514648,00001.835938,00002.026367,00002.563477,00002.651367,00002.602539,00002.685547,00003.349609,00002.827148,00002.016602,-00000.390625,-00000.043945,-00000.463867,00000.014648,-00000.034180,-00000.009766
0000000005281,00002.509766,00001.835938,00002.026367,00002.558594,00002.651367,00002.597656,00002.685547,00003.349609,00002.827148,00002.011719,-00000.390625,-00000.043945,-00000.463867,00000.014648,-00000.034180,-00000.004883
0000000005282,00002.509766,00001.835938,00002.026367,00002.563477,00002.656250,00002.597656,00002.685547,00003.344727,00002.827148,00002.016602,-00000.390625,-00000.043945,-00000.463867,00000.014648,-00000.039063,-00000.004883
0000000005283,00002.514648,00001.835938,00002.031250,00002.563477,00002.651367,00002.597656,00002.680664,00003.354492,00002.827148,00002.021484,-00000.390625,-00000.043945,-00000.463867,00000.014648,-00000.043945,-00000.004883
0000000005284,00002.509766,00001.835938,00002.036133,00002.563477,00002.656250,00002.597656,00002.685547,00003.349609,00002.832031,00002.016602,-00000.385742,-00000.043945,-00000.463867,00000.014648,-00000.043945,-00000.004883
0000000005285,00002.519531,00001.835938,00002.041016,00002.563477,00002.656250,00002.602539,00002.680664,00003.354492,00002.827148,00002.016602,-00000.385742,-00000.043945,-00000.463867,00000.014648,-00000.039063,-00000.004883
0000000005286,00002.514648,00001.835938,00002.041016,00002.558594,00002.656250,00002.592773,00002.685547,00003.354492,00002.827148,00002.016602,-00000.385742,-00000.043945,-00000.463867,00000.014648,-00000.043945,-00000.004883
0000000005287,00002.509766,00001.835938,00002.036133,00002.558594,00002.651367,00002.592773,00002.685547,00003.344727,00002.827148,00002.011719,-00000.385742,-00000.043945,-00000.458984,00000.014648,-00000.048828,00000.000000
0000000005288,00002.509766,00001.835938,00002.041016,00002.563477,00002.656250,00002.597656,00002.685547,00003.349609,00002.832031,00002.016602,-00000.390625,-00000.043945,-00000.463867,00000.009766,-00000.053711,00000.004883
0000000005289,00002.509766,00001.835938,00002.041016,00002.563477,00002.656250,00002.597656,00002.690430,00003.349609,00002.832031,00002.016602,-00000.385742,-00000.043945,-00000.463867,00000.009766,-00000.048828,00000.004883
0000000005290,00002.514648,00001.831055,00002.041016,00002.563477,00002.656250,00002.602539,00002.685547,00003.354492,00002.827148,00002.021484,-00000.390625,-00000.043945,-00000.463867,00000.014648,-00000.043945,00000.004883
0000000005291,00002.509766,00001.835938,00002.041016,00002.563477,00002.656250,00002.597656,00002.685547,00003.349609,00002.827148,00002.016602,-00000.385742,-00000.043945,-00000.458984,00000.014648,-00000.043945,00000.004883
0000000005292,00002.514648,00001.835938,00002.041016,00002.558594,00002.656250,00002.597656,00002.690430,00003.354492,00002.827148,00002.021484,-00000.385742,-00000.043945,-00000.458984,00000.014648,-00000.043945,00000.004883
0000000005293,00002.514648,00001.835938,00002.041016,00002.563477,00002.656250,00002.597656,00002.685547,00003.349609,00002.832031,00002.016602,-00000.385742,-00000.039063,-00000.458984,00000.014648,-00000.048828,00000.004883
0000000005294,00002.514648,00001.835938,00002.036133,00002.563477,00002.651367,00002.597656,00002.680664,00003.344727,00002.827148,00002.011719,-00000.390625,-00000.043945,-00000.458984,00000.009766,-00000.048828,00000.004883
0000000005295,00002.509766,00001.835938,00002.036133,00002.563477,00002.656250,00002.597656,00002.685547,00003.349609,00002.832031,00002.016602,-00000.385742,-00000.043945,-00000.458984,00000.009766,-00000.048828,00000.004883
0000000005296,00002.514648,00001.835938,00002.041016,00002.563477,00002.656250,00002.602539,00002.685547,00003.349609,00002.832031,00002.016602,-00000.390625,-00000.043945,-00000.458984,00000.009766,-00000.048828,00000.004883
0000000005297,00002.514648,00001.835938,00002.041016,00002.563477,00002.656250,00002.602539,00002.680664,00003.354492,00002.827148,00002.016602,-00000.390625,-00000.043945,-00000.463867,00000.009766,-00000.043945,00000.004883
0000000005298,00002.519531,00001.831055,00002.045898,00002.563477,00002.656250,00002.597656,00002.685547,00003.354492,00002.827148,00002.016602,-00000.390625,-00000.043945,-00000.458984,00000.014648,-00000.043945,00000.004883
0000000005299,00002.514648,00001.835938,00002.041016,00002.563477,00002.651367,00002.602539,00002.685547,00003.349609,00002.832031,00002.016602,-00000.385742,-00000.043945,-00000.463867,00000.014648,-00000.048828,00000.004883
0000000005300,00002.514648,00001.835938,00002.041016,00002.563477,00002.656250,00002.602539,00002.685547,00003.354492,00002.827148,00002.016602,-00000.385742,-00000.043945,-00000.458984,00000.014648,-00000.053711,00000.004883
0000000005301,00002.514648,00001.831055,00002.041016,00002.563477,00002.656250,00002.602539,00002.685547,00003.359375,00002.832031,00002.021484,-00000.390625,-00000.043945,-00000.463867,00000.014648,-00000.048828,00000.009766
0000000005302,00002.509766,00001.835938,00002.036133,00002.563477,00002.656250,00002.597656,00002.690430,00003.349609,00002.832031,00002.021484,-00000.385742,-00000.043945,-00000.463867,00000.014648,-00000.043945,00000.009766
0000000005303,00002.514648,00001.835938,00002.036133,00002.563477,00002.656250,00002.597656,00002.685547,00003.349609,00002.832031,00002.016602,-00000.385742,-00000.043945,-00000.463867,00000.014648,-00000.043945,00000.009766
0000000005304,00002.519531,00001.835938,00002.036133,00002.563477,00002.656250,00002.602539,00002.685547,00003.354492,00002.827148,00002.021484,-00000.385742,-00000.043945,-00000.463867,00000.014648,-00000.039063,00000.009766
0000000005305,00002.514648,00001.835938,00002.036133,00002.563477,00002.651367,00002.602539,00002.680664,00003.354492,00002.827148,00002.016602,-00000.385742,-00000.043945,-00000.463867,00000.014648,-00000.039063,00000.009766
0000000005306,00002.509766,00001.835938,00002.036133,00002.563477,00002.656250,00002.597656,00002.690430,00003.344727,00002.832031,00002.016602,-00000.385742,-00000.043945,-00000.463867,00000.009766,-00000.043945,00000.009766
0000000005307,00002.514648,00001.835938,00002.041016,00002.563477,00002.656250,00002.602539,00002.685547,00003.354492,00002.827148,00002.021484,-00000.385742,-00000.043945,-00000.463867,00000.009766,-00000.039063,00000.009766
0000000005308,00002.509766,00001.835938,00002.036133,00002.568359,00002.656250,00002.602539,00002.685547,00003.354492,00002.832031,00002.016602,-00000.385742,-00000.039063,-00000.463867,00000.009766,-00000.039063,00000.009766
0000000005309,00002.509766,00001.835938,00002.036133,00002.563477,00002.656250,00002.597656,00002.685547,00003.349609,00002.832031,00002.011719,-00000.385742,-00000.039063,-00000.458984,00000.009766,-00000.039063,00000.004883
0000000005310,00002.514648,00001.835938,00002.041016,00002.563477,00002.656250,00002.597656,00002.685547,00003.354492,00002.827148,00002.021484,-00000.385742,-00000.039063,-00000.458984,00000.014648,-00000.034180,00000.004883
0000000005311,00002.514648,00001.831055,00002.041016,00002.558594,00002.656250,00002.602539,00002.680664,00003.354492,00002.827148,00002.016602,-00000.380859,-00000.039063,-00000.458984,00000.014648,-00000.034180,00000.004883
0000000005312,00002.514648,00001.835938,00002.041016,00002.558594,00002.656250,00002.597656,00002.685547,00003.349609,00002.827148,00002.016602,-00000.385742,-00000.039063,-00000.463867,00000.014648,-00000.034180,00000.009766
0000000005313,00002.509766,00001.835938,00002.036133,00002.568359,00002.656250,00002.597656,00002.685547,00003.349609,00002.832031,00002.011719,-00000.385742,-00000.043945,-00000.463867,00000.009766,-00000.034180,00000.009766
0000000005314,00002.509766,00001.835938,00002.036133,00002.558594,00002.656250,00002.592773,00002.685547,00003.344727,00002.827148,00002.011719,-00000.385742,-00000.039063,-00000.463867,00000.014648,-00000.034180,00000.009766
0000000005315,00002.509766,00001.831055,00002.041016,00002.558594,00002.661133,00002.597656,00002.685547,00003.354492,00002.827148,00002.021484,-00000.385742,-00000.039063,-00000.463867,00000.009766,-00000.034180,00000.009766
0000000005316,00002.504883,00001.831055,00002.036133,00002.563477,00002.651367,00002.597656,00002.680664,00003.349609,00002.827148,00002.016602,-00000.385742,-00000.039063,-00000.463867,00000.009766,-00000.034180,00000.009766
0000000005317,00002.504883,00001.831055,00002.036133,00002.563477,00002.656250,00002.602539,00002.685547,00003.354492,00002.827148,00002.016602,-00000.385742,-00000.039063,-00000.463867,00000.009766,-00000.039063,00000.009766
0000000005318,00002.509766,00001.831055,00002.036133,00002.558594,00002.651367,00002.597656,00002.680664,00003.349609,00002.822266,00002.016602,-00000.385742,-00000.039063,-00000.463867,00000.009766,-00000.039063,00000.009766
0000000005319,00002.504883,00001.831055,00002.031250,00002.563477,00002.651367,00002.597656,00002.685547,00003.349609,00002.827148,00002.011719,-00000.385742,-00000.039063,-00000.463867,00000.009766,-00000.034180,00000.009766
0000000005320,00002.504883,00001.831055,00002.036133,00002.558594,00002.651367,00002.597656,00002.680664,00003.349609,00002.822266,00002.016602,-00000.385742,-00000.039063,-00000.458984,00000.014648,-00000.029297,00000.004883
0000000005321,00002.509766,00001.835938,00002.036133,00002.563477,00002.656250,00002.602539,00002.685547,00003.354492,00002.827148,00002.021484,-00000.385742,-00000.039063,-00000.458984,00000.019531,-00000.034180,00000.004883
0000000005322,00002.504883,00001.831055,00002.036133,00002.558594,00002.656250,00002.597656,00002.685547,00003.354492,00002.822266,00002.016602,-00000.385742,-00000.039063,-00000.458984,00000.014648,-00000.034180,00000.009766
0000000005323,00002.504883,00001.835938,00002.031250,00002.558594,00002.656250,00002.597656,00002.685547,00003.344727,00002.827148,00002.011719,-00000.385742,-00000.039063,-00000.458984,00000.014648,-00000.034180,00000.009766
0000000005324,00002.500000,00001.835938,00002.031250,00002.558594,00002.656250,00002.597656,00002.685547,00003.349609,00002.822266,00002.016602,-00000.385742,-00000.039063,-00000.458984,00000.014648,-00000.039063,00000.009766
0000000005325,00002.509766,00001.835938,00002.036133,00002.563477,00002.651367,00002.602539,00002.685547,00003.354492,00002.822266,00002.021484,-00000.385742,-00000.039063,-00000.458984,00000.014648,-00000.039063,00000.009766
0000000005326,00002.504883,00001.835938,00002.036133,00002.563477,00002.651367,00002.602539,00002.685547,00003.349609,00002.827148,00002.011719,-00000.385742,-00000.039063,-00000.463867,00000.014648,-00000.034180,00000.009766
0000000005327,00002.504883,00001.835938,00002.031250,00002.563477,00002.651367,00002.602539,00002.685547,00003.344727,00002.827148,00002.016602,-00000.385742,-00000.039063,-00000.458984,00000.014648,-00000.034180,00000.009766
0000000005328,00002.504883,00001.835938,00002.031250,00002.558594,00002.656250,00002.597656,00002.690430,00003.349609,00002.827148,00002.011719,-00000.385742,-00000.039063,-00000.458984,00000.009766,-00000.034180,00000.009766
0000000005329,00002.509766,00001.835938,00002.036133,00002.563477,00002.656250,00002.602539,00002.685547,00003.354492,00002.822266,00002.016602,-00000.385742,-00000.039063,-00000.458984,00000.009766,-00000.034180,00000.009766
0000000005330,00002.509766,00001.831055,00002.041016,00002.563477,00002.661133,00002.602539,00002.685547,00003.359375,00002.827148,00002.021484,-00000.385742,-00000.039063,-00000.458984,00000.014648,-00000.034180,00000.009766
0000000005331,00002.509766,00001.831055,00002.041016,00002.558594,00002.661133,00002.597656,00002.685547,00003.354492,00002.822266,00002.016602,-00000.385742,-00000.039063,-00000.458984,00000.014648,-00000.034180,00000.004883
0000000005332,00002.509766,00001.831055,00002.036133,00002.558594,00002.661133,00002.597656,00002.685547,00003.349609,00002.822266,00002.016602,-00000.385742,-00000.039063,-00000.458984,00000.019531,-00000.034180,00000.004883
0000000005333,00002.514648,00001.831055,00002.036133,00002.558594,00002.656250,00002.602539,00002.685547,00003.354492,00002.822266,00002.021484,-00000.385742,-00000.039063,-00000.458984,00000.014648,-00000.034180,00000.009766
0000000005334,00002.509766,00001.831055,00002.036133,00002.558594,00002.656250,00002.597656,00002.685547,00003.354492,00002.822266,00002.016602,-00000.385742,-00000.039063,-00000.458984,00000.014648,-00000.039063,00000.004883
0000000005335,00002.514648,00001.835938,00002.036133,00002.558594,00002.656250,00002.597656,00002.685547,00003.354492,00002.822266,00002.016602,-00000.385742,-00000.039063,-00000.463867,00000.014648,-00000.039063,00000.009766
0000000005336,00002.509766,00001.831055,00002.036133,00002.558594,00002.656250,00002.597656,00002.685547,00003.354492,00002.822266,00002.016602,-00000.385742,-00000.039063,-00000.458984,00000.014648,-00000.034180,00000.009766
0000000005337,00002.509766,00001.831055,00002.036133,00002.558594,00002.651367,00002.597656,00002.680664,00003.349609,00002.822266,00002.016602,-00000.385742,-00000.039063,-00000.463867,00000.014648,-00000.034180,00000.009766
0000000005338,00002.504883,00001.831055,00002.036133,00002.563477,00002.651367,00002.602539,00002.685547,00003.354492,00002.827148,00002.016602,-00000.385742,-00000.039063,-00000.458984,00000.014648,-00000.029297,00000.009766
0000000005339,00002.509766,00001.831055,00002.041016,00002.558594,00002.656250,00002.597656,00002.685547,00003.354492,00002.822266,00002.016602,-00000.385742,-00000.039063,-00000.458984,00000.014648,-00000.034180,00000.004883
0000000005340,00002.514648,00001.835938,00002.041016,00002.563477,00002.656250,00002.602539,00002.685547,00003.354492,00002.827148,00002.016602,-00000.385742,-00000.039063,-00000.458984,00000.014648,-00000.034180,00000.004883
0000000005341,00002.514648,00001.831055,00002.045898,00002.563477,00002.656250,00002.597656,00002.685547,00003.354492,00002.822266,00002.016602,-00000.385742,-00000.039063,-00000.458984,00000.014648,-00000.039063,00000.009766
0000000005342,00002.514648,00001.835938,00002.036133,00002.568359,00002.656250,00002.602539,00002.685547,00003.354492,00002.827148,00002.016602,-00000.385742,-00000.039063,-00000.458984,00000.014648,-00000.039063,00000.009766
0000000005343,00002.514648,00001.835938,00002.041016,00002.563477,00002.661133,00002.602539,00002.685547,00003.354492,00002.827148,00002.021484,-00000.385742,-00000.039063,-00000.458984,00000.014648,-00000.034180,00000.009766
0000000005344,00002.509766,00001.835938,00002.036133,00002.563477,00002.656250,00002.597656,00002.690430,00003.349609,00002.827148,00002.016602,-00000.385742,-00000.043945,-00000.458984,00000.014648,-00000.039063,00000.009766
0000000005345,00002.514648,00001.831055,00002.036133,00002.563477,00002.656250,00002.597656,00002.685547,00003.354492,00002.822266,00002.016602,-00000.385742,-00000.039063,-00000.463867,00000.014648,-00000.043945,00000.009766
0000000005346,00002.514648,00001.835938,00002.031250,00002.563477,00002.656250,00002.597656,00002.690430,00003.349609,00002.832031,00002.016602,-00000.385742,-00000.039063,-00000.458984,00000.009766,-00000.039063,00000.014648
0000000005347,00002.509766,00001.835938,00002.036133,00002.563477,00002.656250,00002.597656,00002.690430,00003.349609,00002.827148,00002.021484,-00000.380859,-00000.039063,-00000.458984,00000.009766,-00000.034180,00000.019531
0000000005348,00002.509766,00001.835938,00002.031250,00002.563477,00002.656250,00002.597656,00002.685547,00003.344727,00002.827148,00002.021484,-00000.380859,-00000.039063,-00000.458984,00000.014648,-00000.024414,00000.019531
0000000005349,00002.509766,00001.835938,00002.089844,00002.563477,00002.656250,00002.597656,00002.690430,00003.344727,00002.827148,00002.021484,-00000.380859,-00000.039063,-00000.458984,00000.009766,-00000.024414,00000.019531
0000000005350,00002.514648,00001.835938,00002.089844,00002.568359,00002.651367,00002.602539,00002.685547,00003.344727,00002.827148,00002.021484,-00000.380859,-00000.039063,-00000.458984,00000.014648,-00000.019531,00000.019531
0000000005351,00002.514648,00001.831055,00002.089844,00002.563477,00002.651367,00002.602539,00002.685547,00003.349609,00002.822266,00002.021484,-00000.380859,-00000.039063,-00000.458984,00000.009766,-00000.019531,00000.019531
0000000005352,00002.509766,00001.835938,00002.089844,00002.568359,00002.661133,00002.597656,00002.690430,00003.349609,00002.827148,00002.021484,-00000.380859,-00000.039063,-00000.458984,00000.009766,-00000.024414,00000.019531
0000000005353,00002.509766,00001.835938,00002.084961,00002.563477,00002.651367,00002.597656,00002.685547,00003.344727,00002.827148,00002.016602,-00000.385742,-00000.039063,-00000.458984,00000.009766,-00000.029297,00000.019531
0000000005354,00002.509766,00001.835938,00002.031250,00002.563477,00002.656250,00002.597656,00002.685547,00003.344727,00002.827148,00002.016602,-00000.385742,-00000.039063,-00000.458984,00000.014648,-00000.029297,00000.019531
0000000005355,00002.504883,00001.835938,00002.031250,00002.563477,00002.651367,00002.597656,00002.685547,00003.344727,00002.822266,00002.016602,-00000.385742,-00000.039063,-00000.458984,00000.019531,-00000.029297,00000.019531
0000000005356,00002.509766,00001.835938,00002.031250,00002.563477,00002.651367,00002.597656,00002.685547,00003.344727,00002.822266,00002.016602,-00000.385742,-00000.039063,-00000.458984,00000.014648,-00000.029297,00000.019531
0000000005357,00002.504883,00001.831055,00002.036133,00002.558594,00002.656250,00002.592773,00002.685547,00003.349609,00002.822266,00002.021484,-00000.385742,-00000.039063,-00000.458984,00000.014648,-00000.034180,00000.024414
0000000005358,00002.504883,00001.835938,00002.031250,00002.563477,00002.651367,00002.602539,00002.685547,00003.344727,00002.822266,00002.016602,-00000.380859,-00000.039063,-00000.458984,00000.004883,-00000.039063,00000.024414
0000000005359,00002.509766,00001.831055,00002.036133,00002.558594,00002.651367,00002.597656,00002.685547,00003.349609,00002.822266,00002.021484,-00000.380859,-00000.043945,-00000.463867,00000.004883,-00000.039063,00000.024414
0000000005360,00002.504883,00001.831055,00002.036133,00002.563477,00002.651367,00002.602539,00002.685547,00003.354492,00002.822266,00002.021484,-00000.380859,-00000.043945,-00000.463867,00000.004883,-00000.039063,00000.019531
0000000005361,00002.504883,00001.835938,00002.031250,00002.558594,00002.656250,00002.592773,00002.690430,00003.349609,00002.822266,00002.021484,-00000.380859,-00000.039063,-00000.463867,00000.009766,-00000.034180,00000.019531
0000000005362,00002.504883,00001.835938,00002.031250,00002.558594,00002.656250,00002.592773,00002.690430,00003.344727,00002.822266,00002.021484,-00000.380859,-00000.039063,-00000.463867,00000.014648,-00000.029297,00000.019531
0000000005363,00002.504883,00001.831055,00002.031250,00002.553711,00002.656250,00002.597656,00002.685547,00003.349609,00002.817383,00002.021484,-00000.380859,-00000.039063,-00000.458984,00000.009766,-00000.029297,00000.019531
0000000005364,00002.504883,00001.831055,00002.036133,00002.558594,00002.656250,00002.597656,00002.685547,00003.354492,00002.817383,00002.021484,-00000.380859,-00000.039063,-00000.458984,00000.009766,-00000.029297,00000.019531
0000000005365,00002.504883,00001.835938,00002.031250,00002.563477,00002.651367,00002.597656,00002.685547,00003.349609,00002.822266,00002.021484,-00000.380859,-00000.039063,-00000.458984,00000.009766,-00000.029297,00000.014648
0000000005366,00002.504883,00001.831055,00002.036133,00002.563477,00002.651367,00002.597656,00002.680664,00003.349609,00002.817383,00002.021484,-00000.380859,-00000.039063,-00000.458984,00000.009766,-00000.034180,00000.014648
0000000005367,00002.509766,00001.835938,00002.031250,00002.563477,00002.651367,00002.602539,00002.685547,00003.349609,00002.822266,00002.021484,-00000.380859,-00000.039063,-00000.463867,00000.009766,-00000.029297,00000.014648
0000000005368,00002.500000,00001.835938,00002.026367,00002.558594,00002.651367,00002.597656,00002.685547,00003.344727,00002.822266,00002.016602,-00000.380859,-00000.039063,-00000.463867,00000.009766,-00000.029297,00000.014648
0000000005369,00002.504883,00001.831055,00002.036133,00002.563477,00002.651367,00002.597656,00002.680664,00003.349609,00002.817383,00002.016602,-00000.380859,-00000.039063,-00000.458984,00000.009766,-00000.029297,00000.019531
0000000005370,00002.504883,00001.831055,00002.036133,00002.558594,00002.651367,00002.602539,00002.680664,00003.349609,00002.817383,00002.021484,-00000.380859,-00000.039063,-00000.463867,00000.009766,-00000.029297,00000.014648
0000000005371,00002.500000,00001.835938,00002.031250,00002.563477,00002.651367,00002.597656,00002.685547,00003.344727,00002.817383,00002.021484,-00000.380859,-00000.039063,-00000.458984,00000.009766,-00000.029297,00000.014648
0000000005372,00002.504883,00001.835938,00002.031250,00002.563477,00002.651367,00002.597656,00002.685547,00003.344727,00002.822266,00002.016602,-00000.380859,-00000.039063,-00000.463867,00000.009766,-00000.024414,00000.014648
0000000005373,00002.504883,00001.831055,00002.031250,00002.558594,00002.656250,00002.597656,00002.680664,00003.344727,00002.817383,00002.021484,-00000.380859,-00000.039063,-00000.463867,00000.004883,-00000.014648,00000.019531
0000000005374,00002.504883,00001.835938,00002.031250,00002.563477,00002.651367,00002.597656,00002.685547,00003.344727,00002.822266,00002.021484,-00000.380859,-00000.039063,-00000.458984,00000.004883,-00000.014648,00000.019531
0000000005375,00002.504883,00001.831055,00002.036133,00002.558594,00002.656250,00002.602539,00002.685547,00003.349609,00002.822266,00002.021484,-00000.380859,-00000.039063,-00000.458984,00000.004883,-00000.014648,00000.019531
0000000005376,00002.504883,00001.835938,00002.036133,00002.563477,00002.651367,00002.602539,00002.685547,00003.344727,00002.827148,00002.021484,-00000.380859,-00000.039063,-00000.463867,00000.004883,-00000.019531,00000.019531
0000000005377,00002.504883,00001.831055,00002.036133,00002.563477,00002.651367,00002.602539,00002.685547,00003.349609,00002.817383,00002.021484,-00000.380859,-00000.039063,-00000.458984,00000.004883,-00000.019531,00000.019531
0000000005378,00002.500000,00001.831055,00002.031250,00002.563477,00002.656250,00002.597656,00002.685547,00003.344727,00002.822266,00002.021484,-00000.380859,-00000.039063,-00000.458984,00000.004883,-00000.024414,00000.019531
0000000005379,00002.504883,00001.835938,00002.036133,00002.558594,00002.656250,00002.597656,00002.690430,00003.349609,00002.822266,00002.021484,-00000.380859,-00000.039063,-00000.463867,00000.004883,-00000.019531,00000.019531
0000000005380,00002.504883,00001.835938,00002.031250,00002.558594,00002.656250,00002.597656,00002.685547,00003.344727,00002.822266,00002.021484,-00000.380859,-00000.039063,-00000.463867,00000.009766,-00000.019531,00000.019531
0000000005381,00002.504883,00001.831055,00002.036133,00002.558594,00002.656250,00002.602539,00002.685547,00003.349609,00002.817383,00002.021484,-00000.380859,-00000.039063,-00000.463867,00000.009766,-00000.019531,00000.019531
0000000005382,00002.504883,00001.831055,00002.036133,00002.563477,00002.656250,00002.597656,00002.685547,00003.349609,00002.817383,00002.021484,-00000.380859,-00000.039063,-00000.463867,00000.004883,-00000.019531,00000.019531
0000000005383,00002.500000,00001.831055,00002.031250,00002.563477,00002.651367,00002.597656,00002.685547,00003.344727,00002.822266,00002.021484,-00000.380859,-00000.039063,-00000.463867,00000.004883,-00000.019531,00000.019531
0000000005384,00002.504883,00001.831055,00002.036133,00002.558594,00002.656250,00002.597656,00002.685547,00003.344727,00002.822266,00002.021484,-00000.380859,-00000.043945,-00000.463867,00000.004883,-00000.019531,00000.019531
0000000005385,00002.509766,00001.831055,00002.031250,00002.563477,00002.651367,00002.602539,00002.685547,00003.349609,00002.817383,00002.021484,-00000.380859,-00000.043945,-00000.463867,00000.004883,-00000.024414,00000.019531
0000000005386,00002.504883,00001.835938,00002.031250,00002.568359,00002.651367,00002.597656,00002.685547,00003.344727,00002.822266,00002.021484,-00000.380859,-00000.043945,-00000.463867,00000.004883,-00000.029297,00000.019531
0000000005387,00002.504883,00001.831055,00002.031250,00002.563477,00002.651367,00002.597656,00002.680664,00003.344727,00002.817383,00002.021484,-00000.380859,-00000.043945,-00000.463867,00000.000000,-00000.029297,00000.019531
0000000005388,00002.509766,00001.831055,00002.036133,00002.563477,00002.661133,00002.602539,00002.685547,00003.349609,00002.822266,00002.026367,-00000.380859,-00000.043945,-00000.463867,00000.000000,-00000.034180,00000.019531
0000000005389,00002.509766,00001.831055,00002.036133,00002.568359,00002.656250,00002.602539,00002.685547,00003.349609,00002.822266,00002.021484,-00000.380859,-00000.043945,-00000.463867,00000.000000,-00000.034180,00000.014648
0000000005390,00002.514648,00001.831055,00002.036133,00002.568359,00002.656250,00002.602539,00002.685547,00003.354492,00002.822266,00002.026367,-00000.380859,-00000.043945,-00000.463867,00000.004883,-00000.034180,00000.014648
0000000005391,00002.509766,00001.831055,00002.055664,00002.563477,00002.656250,00002.597656,00002.685547,00003.349609,00002.822266,00002.026367,-00000.380859,-00000.043945,-00000.458984,00000.004883,-00000.034180,00000.014648
0000000005392,00002.509766,00001.835938,00002.041016,00002.558594,00002.656250,00002.597656,00002.685547,00003.349609,00002.822266,00002.021484,-00000.380859,-00000.043945,-00000.463867,00000.004883,-00000.029297,00000.014648
0000000005393,00002.514648,00001.831055,00002.041016,00002.563477,00002.661133,00002.602539,00002.685547,00003.354492,00002.822266,00002.026367,-00000.380859,-00000.039063,-00000.463867,00000.000000,-00000.029297,00000.014648
0000000005394,00002.519531,00001.835938,00002.041016,00002.568359,00002.656250,00002.607422,00002.685547,00003.354492,00002.827148,00002.026367,-00000.380859,-00000.043945,-00000.463867,00000.000000,-00000.034180,00000.014648
0000000005395,00002.514648,00001.831055,00002.036133,00002.563477,00002.656250,00002.597656,00002.685547,00003.344727,00002.822266,00002.026367,-00000.380859,-00000.043945,-00000.458984,00000.004883,-00000.029297,00000.014648
0000000005396,00002.509766,00001.835938,00002.041016,00002.573242,00002.656250,00002.607422,00002.685547,00003.349609,00002.827148,00002.021484,-00000.380859,-00000.043945,-00000.458984,00000.004883,-00000.024414,00000.014648
0000000005397,00002.514648,00001.835938,00002.036133,00002.568359,00002.656250,00002.607422,00002.685547,00003.349609,00002.822266,00002.031250,-00000.380859,-00000.039063,-00000.458984,00000.004883,-00000.024414,00000.009766
0000000005398,00002.514648,00001.835938,00002.031250,00002.573242,00002.656250,00002.602539,00002.685547,00003.349609,00002.827148,00002.026367,-00000.380859,-00000.039063,-00000.458984,00000.004883,-00000.024414,00000.014648
0000000005399,00002.514648,00001.831055,00002.036133,00002.568359,00002.656250,00002.607422,00002.685547,00003.354492,00002.822266,00002.026367,-00000.380859,-00000.039063,-00000.458984,00000.004883,-00000.024414,00000.014648
0000000005400,00002.509766,00001.831055,00002.031250,00002.568359,00002.651367,00002.602539,00002.680664,00003.354492,00002.822266,00002.021484,-00000.380859,-00000.039063,-00000.463867,00000.004883,-00000.024414,00000.019531
0000000005401,00002.514648,00001.831055,00002.036133,00002.568359,00002.656250,00002.602539,00002.685547,00003.354492,00002.822266,00002.026367,-00000.380859,-00000.039063,-00000.458984,00000.000000,-00000.024414,00000.014648
0000000005402,00002.509766,00001.831055,00002.031250,00002.563477,00002.651367,00002.602539,00002.680664,00003.349609,00002.822266,00002.026367,-00000.380859,-00000.039063,-00000.463867,00000.000000,-00000.019531,00000.014648
0000000005403,00002.509766,00001.835938,00002.031250,00002.568359,00002.656250,00002.602539,00002.685547,00003.344727,00002.827148,00002.021484,-00000.380859,-00000.039063,-00000.458984,00000.004883,-00000.019531,00000.014648
0000000005404,00002.509766,00001.835938,00002.031250,00002.563477,00002.656250,00002.597656,00002.690430,00003.344727,00002.827148,00002.026367,-00000.385742,-00000.039063,-00000.458984,00000.004883,-00000.019531,00000.019531
0000000005405,00002.504883,00001.831055,00002.031250,00002.563477,00002.656250,00002.597656,00002.685547,00003.344727,00002.822266,00002.026367,-00000.380859,-00000.039063,-00000.458984,00000.004883,-00000.014648,00000.019531
0000000005406,00002.504883,00001.835938,00002.031250,00002.563477,00002.656250,00002.597656,00002.690430,00003.344727,00002.827148,00002.026367,-00000.380859,-00000.039063,-00000.458984,00000.004883,-00000.009766,00000.024414
0000000005407,00002.504883,00001.835938,00002.031250,00002.568359,00002.656250,00002.597656,00002.685547,00003.339844,00002.827148,00002.026367,-00000.380859,-00000.039063,-00000.458984,00000.004883,-00000.009766,00000.024414
0000000005408,00002.504883,00001.831055,00002.031250,00002.563477,00002.656250,00002.597656,00002.685547,00003.344727,00002.817383,00002.026367,-00000.380859,-00000.039063,-00000.458984,00000.004883,-00000.004883,00000.024414
0000000005409,00002.504883,00001.835938,00002.031250,00002.563477,00002.656250,00002.597656,00002.690430,00003.344727,00002.822266,00002.026367,-00000.380859,-00000.034180,-00000.458984,00000.009766,-00000.009766,00000.019531
0000000005410,00002.504883,00001.831055,00002.031250,00002.563477,00002.656250,00002.602539,00002.685547,00003.349609,00002.817383,00002.026367,-00000.380859,-00000.034180,-00000.454102,00000.009766,-00000.009766,00000.019531
0000000005411,00002.500000,00001.835938,00002.031250,00002.568359,00002.656250,00002.602539,00002.690430,00003.344727,00002.822266,00002.026367,-00000.380859,-00000.039063,-00000.454102,00000.009766,-00000.014648,00000.019531
0000000005412,00002.509766,00001.831055,00002.036133,00002.563477,00002.656250,00002.602539,00002.685547,00003.349609,00002.822266,00002.026367,-00000.380859,-00000.034180,-00000.454102,00000.009766,-00000.014648,00000.019531
0000000005413,00002.504883,00001.835938,00002.031250,00002.568359,00002.656250,00002.602539,00002.685547,00003.344727,00002.827148,00002.026367,-00000.380859,-00000.034180,-00000.454102,00000.004883,-00000.014648,00000.019531
0000000005414,00002.500000,00001.831055,00002.026367,00002.558594,00002.656250,00002.597656,00002.685547,00003.339844,00002.817383,00002.026367,-00000.380859,-00000.034180,-00000.454102,00000.004883,-00000.014648,00000.019531
0000000005415,00002.500000,00001.835938,00002.026367,00002.568359,00002.656250,00002.597656,00002.690430,00003.344727,00002.827148,00002.021484,-00000.380859,-00000.034180,-00000.449219,00000.004883,-00000.014648,00000.019531
0000000005416,00002.509766,00001.831055,00002.031250,00002.568359,00002.661133,00002.602539,00002.685547,00003.349609,00002.822266,00002.031250,-00000.380859,-00000.034180,-00000.449219,00000.004883,-00000.019531,00000.014648
0000000005417,00002.500000,00001.831055,00002.041016,00002.568359,00002.656250,00002.597656,00002.690430,00003.339844,00002.827148,00002.026367,-00000.380859,-00000.034180,-00000.449219,00000.004883,-00000.014648,00000.014648
0000000005418,00002.509766,00001.835938,00002.041016,00002.568359,00002.656250,00002.607422,00002.685547,00003.349609,00002.822266,00002.026367,-00000.380859,-00000.034180,-00000.449219,00000.004883,-00000.019531,00000.014648
0000000005419,00002.504883,00001.835938,00002.041016,00002.573242,00002.656250,00002.602539,00002.685547,00003.349609,00002.822266,00002.021484,-00000.380859,-00000.034180,-00000.449219,00000.004883,-00000.019531,00000.014648
0000000005420,00002.504883,00001.831055,00002.041016,00002.573242,00002.651367,00002.602539,00002.685547,00003.349609,00002.822266,00002.026367,-00000.380859,-00000.029297,-00000.449219,00000.000000,-00000.019531,00000.014648
0000000005421,00002.500000,00001.835938,00002.041016,00002.573242,00002.656250,00002.597656,00002.690430,00003.344727,00002.822266,00002.026367,-00000.375977,-00000.024414,-00000.444336,00000.004883,-00000.014648,00000.014648
0000000005422,00002.500000,00001.835938,00002.036133,00002.568359,00002.656250,00002.597656,00002.685547,00003.344727,00002.822266,00002.021484,-00000.380859,-00000.029297,-00000.444336,00000.004883,-00000.019531,00000.014648
0000000005423,00002.504883,00001.831055,00002.041016,00002.568359,00002.661133,00002.597656,00002.685547,00003.349609,00002.822266,00002.026367,-00000.375977,-00000.024414,-00000.439453,00000.004883,-00000.014648,00000.009766
0000000005424,00002.509766,00001.831055,00002.036133,00002.573242,00002.656250,00002.602539,00002.685547,00003.349609,00002.822266,00002.026367,-00000.375977,-00000.024414,-00000.444336,00000.004883,-00000.014648,00000.014648
0000000005425,00002.504883,00001.835938,00002.036133,00002.568359,00002.661133,00002.597656,00002.685547,00003.344727,00002.817383,00002.026367,-00000.380859,-00000.029297,-00000.439453,00000.000000,-00000.024414,00000.014648
0000000005426,00002.500000,00001.835938,00002.031250,00002.578125,00002.656250,00002.602539,00002.690430,00003.344727,00002.827148,00002.026367,-00000.375977,-00000.029297,-00000.444336,00000.000000,-00000.024414,00000.019531
0000000005427,00002.504883,00001.835938,00002.031250,00002.578125,00002.651367,00002.602539,00002.685547,00003.349609,00002.822266,00002.026367,-00000.380859,-00000.029297,-00000.444336,00000.000000,-00000.024414,00000.014648
0000000005428,00002.504883,00001.831055,00002.036133,00002.573242,00002.656250,00002.602539,00002.685547,00003.349609,00002.822266,00002.031250,-00000.375977,-00000.029297,-00000.444336,00000.004883,-00000.019531,00000.014648
0000000005429,00002.504883,00001.835938,00002.031250,00002.583008,00002.656250,00002.607422,00002.685547,00003.349609,00002.822266,00002.026367,-00000.380859,-00000.029297,-00000.444336,00000.004883,-00000.019531,00000.014648
0000000005430,00002.500000,00001.835938,00002.021484,00002.583008,00002.656250,00002.602539,00002.685547,00003.344727,00002.827148,00002.026367,-00000.380859,-00000.029297,-00000.444336,00000.000000,-00000.024414,00000.019531
0000000005431,00002.500000,00001.835938,00002.016602,00002.578125,00002.651367,00002.602539,00002.690430,00003.344727,00002.827148,00002.026367,-00000.380859,-00000.034180,-00000.444336,-00000.004883,-00000.024414,00000.019531
0000000005432,00002.500000,00001.835938,00002.016602,00002.568359,00002.656250,00002.597656,00002.685547,00003.344727,00002.822266,00002.026367,-00000.380859,-00000.034180,-00000.444336,-00000.004883,-00000.029297,00000.019531
0000000005433,00002.504883,00001.835938,00002.016602,00002.578125,00002.656250,00002.602539,00002.685547,00003.344727,00002.827148,00002.021484,-00000.385742,-00000.034180,-00000.439453,-00000.004883,-00000.034180,00000.014648
0000000005434,00002.509766,00001.835938,00002.011719,00002.573242,00002.656250,00002.607422,00002.685547,00003.349609,00002.822266,00002.026367,-00000.390625,-00000.034180,-00000.439453,-00000.004883,-00000.034180,00000.014648
0000000005435,00002.504883,00001.835938,00001.992188,00002.568359,00002.661133,00002.602539,00002.685547,00003.349609,00002.822266,00002.026367,-00000.395508,-00000.039063,-00000.439453,00000.000000,-00000.034180,00000.014648
0000000005436,00002.504883,00001.835938,00001.982422,00002.568359,00002.661133,00002.602539,00002.685547,00003.349609,00002.822266,00002.021484,-00000.405273,-00000.043945,-00000.434570,-00000.004883,-00000.034180,00000.014648
0000000005437,00002.500000,00001.835938,00001.987305,00002.563477,00002.661133,00002.602539,00002.685547,00003.349609,00002.822266,00002.021484,-00000.410156,-00000.048828,-00000.439453,-00000.009766,-00000.043945,00000.014648
0000000005438,00002.490234,00001.835938,00001.982422,00002.563477,00002.661133,00002.602539,00002.690430,00003.344727,00002.822266,00002.021484,-00000.410156,-00000.048828,-00000.434570,-00000.009766,-00000.043945,00000.014648
0000000005439,00002.490234,00001.840820,00001.972656,00002.563477,00002.656250,00002.597656,00002.690430,00003.344727,00002.827148,00002.016602,-00000.415039,-00000.048828,-00000.434570,-00000.009766,-00000.043945,00000.019531
0000000005440,00002.495117,00001.840820,00001.972656,00002.568359,00002.661133,00002.602539,00002.690430,00003.344727,00002.827148,00002.016602,-00000.415039,-00000.048828,-00000.429688,-00000.004883,-00000.039063,00000.014648
0000000005441,00002.495117,00001.835938,00001.967773,00002.568359,00002.656250,00002.607422,00002.685547,00003.349609,00002.822266,00002.016602,-00000.419922,-00000.048828,-00000.429688,-00000.004883,-00000.034180,00000.014648
0000000005442,00002.490234,00001.840820,00001.962891,00002.568359,00002.661133,00002.607422,00002.685547,00003.349609,00002.822266,00002.016602,-00000.424805,-00000.053711,-00000.424805,-00000.004883,-00000.034180,00000.014648
0000000005443,00002.485352,00001.835938,00001.948242,00002.558594,00002.656250,00002.602539,00002.685547,00003.349609,00002.822266,00002.011719,-00000.434570,-00000.058594,-00000.419922,-00000.009766,-00000.039063,00000.014648
0000000005444,00002.480469,00001.835938,00001.928711,00002.553711,00002.656250,00002.597656,00002.685547,00003.339844,00002.817383,00001.997070,-00000.449219,-00000.068359,-00000.415039,-00000.004883,-00000.043945,00000.014648
0000000005445,00002.475586,00001.840820,00001.918945,00002.553711,00002.656250,00002.597656,00002.690430,00003.339844,00002.827148,00001.987305,-00000.458984,-00000.073242,-00000.405273,-00000.004883,-00000.048828,00000.014648
0000000005446,00002.475586,00001.835938,00001.914063,00002.543945,00002.661133,00002.597656,00002.685547,00003.344727,00002.817383,00001.972656,-00000.473633,-00000.073242,-00000.395508,-00000.004883,-00000.048828,00000.014648
0000000005447,00002.470703,00001.840820,00001.909180,00002.539063,00002.661133,00002.597656,00002.685547,00003.344727,00002.817383,00001.962891,-00000.478516,-00000.063477,-00000.395508,-00000.009766,-00000.048828,00000.014648
0000000005448,00002.470703,00001.835938,00001.914063,00002.539063,00002.661133,00002.602539,00002.685547,00003.349609,00002.817383,00001.962891,-00000.478516,-00000.063477,-00000.400391,-00000.014648,-00000.053711,00000.014648
0000000005449,00002.465820,00001.840820,00001.904297,00002.548828,00002.651367,00002.597656,00002.685547,00003.339844,00002.822266,00001.958008,-00000.483398,-00000.058594,-00000.395508,-00000.014648,-00000.048828,00000.014648
0000000005450,00002.465820,00001.840820,00001.904297,00002.543945,00002.656250,00002.597656,00002.685547,00003.339844,00002.822266,00001.953125,-00000.498047,-00000.048828,-00000.390625,-00000.014648,-00000.043945,00000.014648
0000000005451,00002.465820,00001.840820,00001.904297,00002.548828,00002.656250,00002.597656,00002.690430,00003.339844,00002.822266,00001.953125,-00000.517578,-00000.043945,-00000.375977,-00000.004883,-00000.043945,00000.014648
0000000005452,00002.465820,00001.840820,00001.904297,00002.539063,00002.656250,00002.597656,00002.685547,00003.344727,00002.817383,00001.958008,-00000.532227,-00000.034180,-00000.371094,-00000.004883,-00000.048828,00000.009766
0000000005453,00002.456055,00001.840820,00001.904297,00002.543945,00002.661133,00002.592773,00002.690430,00003.339844,00002.817383,00001.953125,-00000.541992,-00000.029297,-00000.371094,-00000.004883,-00000.053711,00000.014648
0000000005454,00002.456055,00001.835938,00001.909180,00002.543945,00002.656250,00002.597656,00002.685547,00003.344727,00002.817383,00001.958008,-00000.551758,-00000.034180,-00000.375977,-00000.009766,-00000.058594,00000.014648
0000000005455,00002.451172,00001.840820,00001.899414,00002.539063,00002.656250,00002.592773,00002.690430,00003.339844,00002.817383,00001.953125,-00000.566406,-00000.039063,-00000.371094,-00000.004883,-00000.053711,00000.019531
0000000005456,00002.460938,00001.835938,00001.904297,00002.539063,00002.656250,00002.597656,00002.685547,00003.344727,00002.812500,00001.958008,-00000.571289,-00000.039063,-00000.366211,00000.000000,-00000.053711,00000.019531
0000000005457,00002.460938,00001.835938,00001.894531,00002.534180,00002.651367,00002.597656,00002.685547,00003.344727,00002.812500,00001.953125,-00000.585938,-00000.043945,-00000.361328,00000.004883,-00000.048828,00000.019531
0000000005458,00002.460938,00001.840820,00001.894531,00002.534180,00002.661133,00002.597656,00002.685547,00003.344727,00002.812500,00001.948242,-00000.590820,-00000.039063,-00000.356445,00000.009766,-00000.043945,00000.019531
0000000005459,00002.465820,00001.845703,00001.889648,00002.534180,00002.656250,00002.592773,00002.685547,00003.339844,00002.812500,00001.943359,-00000.600586,-00000.039063,-00000.356445,00000.014648,-00000.039063,00000.014648
0000000005460,00002.470703,00001.840820,00001.889648,00002.534180,00002.656250,00002.597656,00002.685547,00003.344727,00002.812500,00001.943359,-00000.615234,-00000.043945,-00000.356445,00000.009766,-00000.029297,00000.014648
0000000005461,00002.475586,00001.840820,00001.879883,00002.529297,00002.656250,00002.597656,00002.685547,00003.344727,00002.812500,00001.938477,-00000.649414,-00000.039063,-00000.351563,00000.014648,-00000.024414,00000.019531
0000000005462,00002.475586,00001.840820,00001.870117,00002.529297,00002.656250,00002.597656,00002.685547,00003.344727,00002.812500,00001.933594,-00000.688477,-00000.034180,-00000.341797,00000.019531,-00000.029297,00000.019531
0000000005463,00002.480469,00001.840820,00001.845703,00002.524414,00002.651367,00002.597656,00002.680664,00003.339844,00002.807617,00001.933594,-00000.717773,-00000.029297,-00000.336914,00000.024414,-00000.039063,00000.019531
0000000005464,00002.475586,00001.840820,00001.835938,00002.519531,00002.656250,00002.587891,00002.685547,00003.334961,00002.812500,00001.938477,-00000.737305,-00000.034180,-00000.341797,00000.024414,-00000.043945,00000.019531
0000000005465,00002.475586,00001.845703,00001.831055,00002.514648,00002.656250,00002.587891,00002.690430,00003.339844,00002.807617,00001.938477,-00000.761719,-00000.034180,-00000.332031,00000.024414,-00000.048828,00000.019531
0000000005466,00002.475586,00001.845703,00001.826172,00002.514648,00002.651367,00002.583008,00002.685547,00003.330078,00002.807617,00001.928711,-00000.786133,-00000.039063,-00000.327148,00000.029297,-00000.048828,00000.014648
0000000005467,00002.475586,00001.845703,00001.826172,00002.514648,00002.646484,00002.592773,00002.685547,00003.334961,00002.807617,00001.933594,-00000.805664,-00000.043945,-00000.332031,00000.029297,-00000.048828,00000.014648
0000000005468,00002.475586,00001.845703,00001.821289,00002.514648,00002.646484,00002.587891,00002.685547,00003.339844,00002.807617,00001.928711,-00000.820313,-00000.048828,-00000.336914,00000.024414,-00000.053711,00000.009766
0000000005469,00002.475586,00001.845703,00001.821289,00002.514648,00002.646484,00002.587891,00002.685547,00003.334961,00002.807617,00001.928711,-00000.839844,-00000.048828,-00000.336914,00000.024414,-00000.048828,00000.009766
0000000005470,00002.470703,00001.845703,00001.816406,00002.509766,00002.646484,00002.583008,00002.685547,00003.330078,00002.807617,00001.923828,-00000.869141,-00000.053711,-00000.332031,00000.034180,-00000.039063,00000.004883
0000000005471,00002.475586,00001.845703,00001.806641,00002.504883,00002.646484,00002.587891,00002.685547,00003.334961,00002.788086,00001.928711,-00000.908203,-00000.063477,-00000.317383,00000.039063,-00000.014648,00000.009766
0000000005472,00002.470703,00001.845703,00001.801758,00002.495117,00002.641602,00002.578125,00002.680664,00003.330078,00002.783203,00001.923828,-00000.932617,-00000.073242,-00000.317383,00000.034180,-00000.009766,00000.014648
0000000005473,00002.465820,00001.845703,00001.791992,00002.495117,00002.641602,00002.573242,00002.685547,00003.325195,00002.788086,00001.918945,-00000.947266,-00000.083008,-00000.317383,00000.029297,-00000.009766,00000.019531
0000000005474,00002.465820,00001.845703,00001.787109,00002.495117,00002.641602,00002.568359,00002.685547,00003.330078,00002.783203,00001.923828,-00000.966797,-00000.087891,-00000.317383,00000.024414,-00000.009766,00000.019531
0000000005475,00002.460938,00001.845703,00001.777344,00002.495117,00002.631836,00002.573242,00002.685547,00003.330078,00002.788086,00001.918945,-00000.991211,-00000.087891,-00000.312500,00000.034180,-00000.004883,00000.014648
0000000005476,00002.470703,00001.845703,00001.777344,00002.495117,00002.626953,00002.578125,00002.680664,00003.330078,00002.783203,00001.918945,-00001.010742,-00000.087891,-00000.312500,00000.048828,-00000.004883,00000.009766
0000000005477,00002.465820,00001.845703,00001.777344,00002.495117,00002.626953,00002.568359,00002.680664,00003.325195,00002.783203,00001.909180,-00001.015625,-00000.087891,-00000.317383,00000.053711,00000.000000,00000.009766
0000000005478,00002.465820,00001.840820,00001.782227,00002.485352,00002.626953,00002.563477,00002.680664,00003.330078,00002.783203,00001.914063,-00001.020508,-00000.083008,-00000.322266,00000.048828,-00000.009766,00000.009766
0000000005479,00002.470703,00001.845703,00001.791992,00002.490234,00002.622070,00002.563477,00002.675781,00003.334961,00002.783203,00001.914063,-00001.040039,-00000.087891,-00000.317383,00000.048828,-00000.024414,00000.009766
0000000005480,00002.470703,00001.840820,00001.787109,00002.490234,00002.622070,00002.563477,00002.675781,00003.334961,00002.783203,00001.914063,-00001.059570,-00000.087891,-00000.312500,00000.053711,-00000.024414,00000.009766
0000000005481,00002.470703,00001.850586,00001.787109,00002.490234,00002.626953,00002.563477,00002.680664,00003.325195,00002.788086,00001.914063,-00001.074219,-00000.092773,-00000.312500,00000.058594,-00000.024414,00000.014648
0000000005482,00002.470703,00001.845703,00001.787109,00002.485352,00002.626953,00002.563477,00002.680664,00003.330078,00002.778320,00001.914063,-00001.083984,-00000.097656,-00000.317383,00000.058594,-00000.024414,00000.019531
0000000005483,00002.465820,00001.845703,00001.782227,00002.490234,00002.622070,00002.568359,00002.680664,00003.325195,00002.788086,00001.909180,-00001.093750,-00000.097656,-00000.317383,00000.058594,-00000.019531,00000.019531
0000000005484,00002.470703,00001.850586,00001.782227,00002.495117,00002.622070,00002.568359,00002.680664,00003.325195,00002.788086,00001.914063,-00001.098633,-00000.097656,-00000.317383,00000.058594,-00000.024414,00000.019531
0000000005485,00002.470703,00001.855469,00001.787109,00002.490234,00002.631836,00002.568359,00002.685547,00003.325195,00002.788086,00001.914063,-00001.093750,-00000.112305,-00000.327148,00000.058594,-00000.024414,00000.019531
0000000005486,00002.475586,00001.850586,00001.796875,00002.490234,00002.636719,00002.578125,00002.685547,00003.330078,00002.792969,00001.918945,-00001.079102,-00000.122070,-00000.341797,00000.058594,-00000.024414,00000.019531
0000000005487,00002.470703,00001.855469,00001.801758,00002.490234,00002.636719,00002.573242,00002.685547,00003.325195,00002.802734,00001.914063,-00001.064453,-00000.117188,-00000.341797,00000.053711,-00000.024414,00000.024414
0000000005488,00002.475586,00001.850586,00001.801758,00002.490234,00002.631836,00002.573242,00002.680664,00003.334961,00002.802734,00001.914063,-00001.059570,-00000.117188,-00000.336914,00000.048828,-00000.019531,00000.019531
0000000005489,00002.470703,00001.855469,00001.801758,00002.495117,00002.631836,00002.568359,00002.685547,00003.325195,00002.807617,00001.914063,-00001.059570,-00000.107422,-00000.332031,00000.053711,-00000.019531,00000.019531
0000000005490,00002.475586,00001.855469,00001.806641,00002.485352,00002.636719,00002.573242,00002.680664,00003.334961,00002.802734,00001.918945,-00001.059570,-00000.102539,-00000.332031,00000.053711,-00000.019531,00000.019531
0000000005491,00002.470703,00001.855469,00001.806641,00002.490234,00002.626953,00002.573242,00002.680664,00003.330078,00002.802734,00001.914063,-00001.054688,-00000.102539,-00000.332031,00000.048828,-00000.024414,00000.019531
0000000005492,00002.470703,00001.850586,00001.806641,00002.485352,00002.631836,00002.568359,00002.680664,00003.330078,00002.802734,00001.914063,-00001.059570,-00000.097656,-00000.332031,00000.039063,-00000.034180,00000.019531
0000000005493,00002.465820,00001.845703,00001.806641,00002.485352,00002.631836,00002.568359,00002.675781,00003.334961,00002.802734,00001.918945,-00001.079102,-00000.087891,-00000.317383,00000.039063,-00000.039063,00000.024414
0000000005494,00002.465820,00001.850586,00001.806641,00002.485352,00002.631836,00002.563477,00002.680664,00003.330078,00002.797852,00001.914063,-00001.098633,-00000.078125,-00000.307617,00000.043945,-00000.034180,00000.019531
0000000005495,00002.465820,00001.845703,00001.811523,00002.490234,00002.631836,00002.568359,00002.675781,00003.334961,00002.802734,00001.914063,-00001.103516,-00000.073242,-00000.302734,00000.048828,-00000.029297,00000.019531
0000000005496,00002.460938,00001.850586,00001.811523,00002.490234,00002.636719,00002.568359,00002.680664,00003.330078,00002.797852,00001.909180,-00001.103516,-00000.068359,-00000.307617,00000.048828,-00000.024414,00000.019531
0000000005497,00002.460938,00001.845703,00001.806641,00002.490234,00002.626953,00002.568359,00002.675781,00003.330078,00002.802734,00001.909180,-00001.113281,-00000.068359,-00000.302734,00000.053711,-00000.019531,00000.019531
0000000005498,00002.460938,00001.850586,00001.801758,00002.490234,00002.631836,00002.563477,00002.680664,00003.325195,00002.802734,00001.909180,-00001.118164,-00000.073242,-00000.297852,00000.053711,-00000.024414,00000.019531
0000000005499,00002.465820,00001.845703,00001.806641,00002.485352,00002.631836,00002.568359,00002.675781,00003.334961,00002.797852,00001.914063,-00001.123047,-00000.078125,-00000.297852,00000.058594,-00000.024414,00000.019531
0000000005500,00002.456055,00001.850586,00001.801758,00002.490234,00002.636719,00002.568359,00002.680664,00003.330078,00002.802734,00001.909180,-00001.118164,-00000.087891,-00000.302734,00000.058594,-00000.019531,00000.019531
0000000005501,00002.465820,00001.845703,00001.801758,00002.485352,00002.636719,00002.563477,00002.680664,00003.334961,00002.797852,00001.909180,-00001.108398,-00000.097656,-00000.312500,00000.058594,-00000.014648,00000.019531
0000000005502,00002.465820,00001.850586,00001.801758,00002.485352,00002.641602,00002.563477,00002.680664,00003.334961,00002.802734,00001.909180,-00001.103516,-00000.102539,-00000.317383,00000.058594,-00000.014648,00000.019531
0000000005503,00002.465820,00001.850586,00001.801758,00002.490234,00002.636719,00002.563477,00002.680664,00003.330078,00002.802734,00001.909180,-00001.093750,-00000.097656,-00000.317383,00000.058594,-00000.014648,00000.019531
0000000005504,00002.465820,00001.850586,00001.801758,00002.490234,00002.631836,00002.568359,00002.680664,00003.334961,00002.807617,00001.909180,-00001.088867,-00000.102539,-00000.322266,00000.053711,-00000.014648,00000.019531
0000000005505,00002.460938,00001.850586,00001.791992,00002.485352,00002.631836,00002.553711,00002.675781,00003.330078,00002.802734,00001.899414,-00001.123047,-00000.117188,-00000.317383,00000.053711,-00000.009766,00000.019531
0000000005506,00002.456055,00001.850586,00001.772461,00002.480469,00002.636719,00002.553711,00002.680664,00003.330078,00002.802734,00001.904297,-00001.162109,-00000.122070,-00000.302734,00000.053711,-00000.019531,00000.014648
0000000005507,00002.456055,00001.850586,00001.772461,00002.490234,00002.631836,00002.553711,00002.680664,00003.325195,00002.797852,00001.904297,-00001.186523,-00000.126953,-00000.292969,00000.053711,-00000.024414,00000.014648
0000000005508,00002.451172,00001.850586,00001.777344,00002.485352,00002.636719,00002.548828,00002.680664,00003.325195,00002.788086,00001.904297,-00001.196289,-00000.131836,-00000.292969,00000.048828,-00000.039063,00000.014648
0000000005509,00002.451172,00001.850586,00001.777344,00002.480469,00002.631836,00002.548828,00002.680664,00003.325195,00002.788086,00001.904297,-00001.196289,-00000.136719,-00000.302734,00000.048828,-00000.048828,00000.014648
0000000005510,00002.451172,00001.850586,00001.777344,00002.485352,00002.626953,00002.553711,00002.675781,00003.330078,00002.788086,00001.899414,-00001.191406,-00000.131836,-00000.307617,00000.048828,-00000.043945,00000.014648
0000000005511,00002.456055,00001.850586,00001.772461,00002.490234,00002.631836,00002.558594,00002.680664,00003.330078,00002.792969,00001.904297,-00001.176758,-00000.122070,-00000.312500,00000.053711,-00000.024414,00000.014648
0000000005512,00002.456055,00001.850586,00001.772461,00002.485352,00002.626953,00002.553711,00002.675781,00003.325195,00002.792969,00001.899414,-00001.162109,-00000.122070,-00000.317383,00000.053711,-00000.009766,00000.019531
0000000005513,00002.460938,00001.850586,00001.772461,00002.485352,00002.631836,00002.553711,00002.670898,00003.334961,00002.792969,00001.899414,-00001.152344,-00000.112305,-00000.317383,00000.058594,-00000.009766,00000.019531
0000000005514,00002.451172,00001.850586,00001.772461,00002.485352,00002.626953,00002.553711,00002.675781,00003.330078,00002.797852,00001.889648,-00001.137695,-00000.112305,-00000.317383,00000.058594,-00000.009766,00000.024414
0000000005515,00002.465820,00001.845703,00001.777344,00002.485352,00002.631836,00002.558594,00002.670898,00003.334961,00002.797852,00001.899414,-00001.118164,-00000.107422,-00000.322266,00000.048828,-00000.004883,00000.024414
0000000005516,00002.465820,00001.850586,00001.777344,00002.485352,00002.631836,00002.563477,00002.675781,00003.334961,00002.802734,00001.894531,-00001.103516,-00000.107422,-00000.327148,00000.043945,-00000.009766,00000.029297
0000000005517,00002.465820,00001.850586,00001.782227,00002.490234,00002.631836,00002.563477,00002.675781,00003.334961,00002.807617,00001.894531,-00001.088867,-00000.107422,-00000.332031,00000.034180,-00000.019531,00000.029297
0000000005518,00002.460938,00001.850586,00001.791992,00002.485352,00002.641602,00002.563477,00002.675781,00003.330078,00002.807617,00001.894531,-00001.074219,-00000.107422,-00000.336914,00000.034180,-00000.024414,00000.029297
0000000005519,00002.470703,00001.850586,00001.796875,00002.490234,00002.641602,00002.578125,00002.675781,00003.339844,00002.812500,00001.899414,-00001.064453,-00000.107422,-00000.336914,00000.034180,-00000.019531,00000.029297
0000000005520,00002.460938,00001.855469,00001.791992,00002.495117,00002.641602,00002.578125,00002.685547,00003.334961,00002.817383,00001.899414,-00001.059570,-00000.102539,-00000.341797,00000.034180,-00000.014648,00000.029297
0000000005521,00002.465820,00001.850586,00001.796875,00002.485352,00002.641602,00002.573242,00002.680664,00003.334961,00002.812500,00001.899414,-00001.069336,-00000.107422,-00000.332031,00000.034180,-00000.004883,00000.029297
0000000005522,00002.470703,00001.850586,00001.791992,00002.490234,00002.636719,00002.578125,00002.680664,00003.334961,00002.817383,00001.899414,-00001.074219,-00000.107422,-00000.322266,00000.034180,-00000.004883,00000.024414
0000000005523,00002.465820,00001.855469,00001.791992,00002.490234,00002.641602,00002.578125,00002.685547,00003.330078,00002.817383,00001.899414,-00001.079102,-00000.102539,-00000.322266,00000.039063,-00000.004883,00000.024414
0000000005524,00002.465820,00001.855469,00001.796875,00002.495117,00002.641602,00002.583008,00002.685547,00003.334961,00002.817383,00001.899414,-00001.079102,-00000.102539,-00000.322266,00000.039063,-00000.009766,00000.024414
0000000005525,00002.470703,00001.855469,00001.796875,00002.495117,00002.641602,00002.583008,00002.685547,00003.334961,00002.812500,00001.899414,-00001.083984,-00000.102539,-00000.327148,00000.043945,-00000.009766,00000.019531
0000000005526,00002.470703,00001.855469,00001.801758,00002.485352,00002.646484,00002.583008,00002.680664,00003.339844,00002.812500,00001.899414,-00001.083984,-00000.102539,-00000.327148,00000.043945,-00000.004883,00000.019531
0000000005527,00002.465820,00001.855469,00001.796875,00002.485352,00002.646484,00002.578125,00002.685547,00003.334961,00002.812500,00001.904297,-00001.083984,-00000.102539,-00000.327148,00000.043945,-00000.009766,00000.019531
0000000005528,00002.470703,00001.850586,00001.796875,00002.490234,00002.636719,00002.583008,00002.680664,00003.334961,00002.812500,00001.899414,-00001.083984,-00000.097656,-00000.327148,00000.048828,-00000.009766,00000.024414
0000000005529,00002.465820,00001.855469,00001.791992,00002.490234,00002.646484,00002.583008,00002.685547,00003.334961,00002.817383,00001.899414,-00001.079102,-00000.097656,-00000.322266,00000.043945,-00000.014648,00000.024414
0000000005530,00002.470703,00001.855469,00001.787109,00002.485352,00002.641602,00002.573242,00002.680664,00003.334961,00002.807617,00001.894531,-00001.079102,-00000.112305,-00000.332031,00000.039063,-00000.009766,00000.024414
0000000005531,00002.470703,00001.850586,00001.782227,00002.490234,00002.636719,00002.578125,00002.680664,00003.334961,00002.812500,00001.894531,-00001.088867,-00000.112305,-00000.327148,00000.039063,-00000.009766,00000.024414
0000000005532,00002.470703,00001.850586,00001.777344,00002.485352,00002.636719,00002.573242,00002.680664,00003.334961,00002.812500,00001.894531,-00001.093750,-00000.117188,-00000.327148,00000.043945,-00000.004883,00000.019531
0000000005533,00002.470703,00001.850586,00001.772461,00002.480469,00002.641602,00002.573242,00002.675781,00003.334961,00002.807617,00001.894531,-00001.103516,-00000.126953,-00000.332031,00000.039063,-00000.019531,00000.024414
0000000005534,00002.465820,00001.855469,00001.767578,00002.485352,00002.646484,00002.573242,00002.685547,00003.334961,00002.817383,00001.894531,-00001.103516,-00000.131836,-00000.336914,00000.034180,-00000.024414,00000.024414
0000000005535,00002.465820,00001.850586,00001.772461,00002.485352,00002.641602,00002.573242,00002.680664,00003.339844,00002.812500,00001.894531,-00001.098633,-00000.131836,-00000.336914,00000.034180,-00000.019531,00000.024414
0000000005536,00002.460938,00001.850586,00001.767578,00002.485352,00002.636719,00002.573242,00002.675781,00003.330078,00002.812500,00001.875000,-00001.108398,-00000.131836,-00000.336914,00000.039063,-00000.004883,00000.019531
0000000005537,00002.460938,00001.850586,00001.762695,00002.485352,00002.636719,00002.568359,00002.680664,00003.325195,00002.807617,00001.870117,-00001.118164,-00000.131836,-00000.332031,00000.043945,-00000.004883,00000.019531
0000000005538,00002.465820,00001.850586,00001.767578,00002.485352,00002.641602,00002.578125,00002.680664,00003.334961,00002.812500,00001.865234,-00001.118164,-00000.131836,-00000.336914,00000.039063,-00000.009766,00000.019531
0000000005539,00002.465820,00001.850586,00001.762695,00002.485352,00002.631836,00002.573242,00002.680664,00003.330078,00002.812500,00001.865234,-00001.118164,-00000.136719,-00000.341797,00000.029297,-00000.009766,00000.024414
0000000005540,00002.465820,00001.845703,00001.772461,00002.480469,00002.636719,00002.568359,00002.680664,00003.339844,00002.807617,00001.865234,-00001.157227,-00000.156250,-00000.341797,00000.029297,-00000.004883,00000.024414
0000000005541,00002.460938,00001.850586,00001.767578,00002.475586,00002.641602,00002.568359,00002.680664,00003.330078,00002.807617,00001.865234,-00001.176758,-00000.156250,-00000.336914,00000.039063,-00000.004883,00000.019531
0000000005542,00002.465820,00001.850586,00001.762695,00002.480469,00002.631836,00002.568359,00002.675781,00003.334961,00002.807617,00001.865234,-00001.181641,-00000.156250,-00000.332031,00000.039063,-00000.009766,00000.019531
0000000005543,00002.465820,00001.855469,00001.762695,00002.480469,00002.636719,00002.573242,00002.680664,00003.334961,00002.807617,00001.865234,-00001.181641,-00000.151367,-00000.332031,00000.039063,-00000.019531,00000.024414
0000000005544,00002.465820,00001.855469,00001.757813,00002.485352,00002.631836,00002.573242,00002.680664,00003.330078,00002.812500,00001.870117,-00001.171875,-00000.151367,-00000.336914,00000.039063,-00000.019531,00000.024414
0000000005545,00002.470703,00001.850586,00001.762695,00002.485352,00002.636719,00002.578125,00002.675781,00003.334961,00002.807617,00001.870117,-00001.162109,-00000.161133,-00000.346680,00000.043945,-00000.004883,00000.024414
0000000005546,00002.475586,00001.855469,00001.762695,00002.485352,00002.646484,00002.578125,00002.680664,00003.339844,00002.812500,00001.865234,-00001.137695,-00000.161133,-00000.351563,00000.039063,00000.000000,00000.029297
0000000005547,00002.470703,00001.855469,00001.757813,00002.490234,00002.636719,00002.573242,00002.685547,00003.330078,00002.812500,00001.850586,-00001.137695,-00000.166016,-00000.351563,00000.039063,00000.000000,00000.029297
0000000005548,00002.465820,00001.855469,00001.757813,00002.485352,00002.641602,00002.568359,00002.685547,00003.330078,00002.812500,00001.855469,-00001.147461,-00000.166016,-00000.341797,00000.039063,-00000.004883,00000.024414
0000000005549,00002.470703,00001.850586,00001.757813,00002.480469,00002.641602,00002.573242,00002.680664,00003.334961,00002.812500,00001.865234,-00001.147461,-00000.166016,-00000.341797,00000.039063,-00000.009766,00000.024414
0000000005550,00002.470703,00001.855469,00001.757813,00002.485352,00002.636719,00002.578125,00002.680664,00003.330078,00002.812500,00001.860352,-00001.142578,-00000.161133,-00000.341797,00000.039063,-00000.019531,00000.029297
0000000005551,00002.475586,00001.850586,00001.762695,00002.485352,00002.641602,00002.578125,00002.680664,00003.334961,00002.807617,00001.850586,-00001.127930,-00000.161133,-00000.346680,00000.043945,-00000.014648,00000.029297
0000000005552,00002.470703,00001.855469,00001.757813,00002.485352,00002.646484,00002.578125,00002.685547,00003.330078,00002.812500,00001.835938,-00001.127930,-00000.156250,-00000.341797,00000.048828,-00000.004883,00000.024414
0000000005553,00002.470703,00001.850586,00001.762695,00002.480469,00002.641602,00002.583008,00002.680664,00003.334961,00002.807617,00001.835938,-00001.137695,-00000.146484,-00000.327148,00000.053711,00000.000000,00000.024414
0000000005554,00002.470703,00001.855469,00001.757813,00002.490234,00002.641602,00002.583008,00002.680664,00003.334961,00002.812500,00001.831055,-00001.147461,-00000.141602,-00000.322266,00000.053711,00000.000000,00000.024414
0000000005555,00002.475586,00001.850586,00001.757813,00002.490234,00002.641602,00002.583008,00002.680664,00003.334961,00002.812500,00001.835938,-00001.181641,-00000.131836,-00000.317383,00000.058594,-00000.014648,00000.029297
0000000005556,00002.470703,00001.850586,00001.752930,00002.490234,00002.641602,00002.578125,00002.685547,00003.330078,00002.812500,00001.845703,-00001.186523,-00000.126953,-00000.322266,00000.058594,-00000.019531,00000.029297
0000000005557,00002.470703,00001.850586,00001.757813,00002.490234,00002.641602,00002.578125,00002.685547,00003.330078,00002.812500,00001.845703,-00001.181641,-00000.126953,-00000.327148,00000.058594,-00000.014648,00000.034180
0000000005558,00002.470703,00001.850586,00001.757813,00002.485352,00002.641602,00002.583008,00002.680664,00003.330078,00002.812500,00001.840820,-00001.171875,-00000.122070,-00000.322266,00000.058594,-00000.004883,00000.034180
0000000005559,00002.470703,00001.850586,00001.757813,00002.490234,00002.641602,00002.583008,00002.685547,00003.334961,00002.812500,00001.835938,-00001.162109,-00000.122070,-00000.322266,00000.058594,-00000.004883,00000.034180
0000000005560,00002.475586,00001.850586,00001.762695,00002.485352,00002.641602,00002.583008,00002.680664,00003.334961,00002.807617,00001.826172,-00001.123047,-00000.117188,-00000.327148,00000.053711,-00000.004883,00000.029297
0000000005561,00002.470703,00001.850586,00001.757813,00002.490234,00002.641602,00002.578125,00002.680664,00003.330078,00002.817383,00001.826172,-00001.108398,-00000.122070,-00000.332031,00000.048828,00000.000000,00000.029297
0000000005562,00002.470703,00001.845703,00001.757813,00002.485352,00002.641602,00002.573242,00002.680664,00003.334961,00002.807617,00001.826172,-00001.088867,-00000.126953,-00000.346680,00000.043945,00000.000000,00000.029297
0000000005563,00002.470703,00001.850586,00001.767578,00002.485352,00002.641602,00002.578125,00002.680664,00003.334961,00002.817383,00001.826172,-00001.083984,-00000.122070,-00000.346680,00000.043945,-00000.004883,00000.029297
0000000005564,00002.470703,00001.845703,00001.762695,00002.485352,00002.631836,00002.578125,00002.675781,00003.334961,00002.812500,00001.826172,-00001.088867,-00000.112305,-00000.336914,00000.043945,-00000.019531,00000.034180
0000000005565,00002.465820,00001.845703,00001.762695,00002.485352,00002.636719,00002.573242,00002.680664,00003.334961,00002.817383,00001.826172,-00001.088867,-00000.112305,-00000.336914,00000.043945,-00000.019531,00000.034180
0000000005566,00002.465820,00001.845703,00001.767578,00002.485352,00002.641602,00002.578125,00002.675781,00003.339844,00002.812500,00001.826172,-00001.083984,-00000.107422,-00000.336914,00000.039063,-00000.009766,00000.034180
0000000005567,00002.465820,00001.845703,00001.762695,00002.485352,00002.641602,00002.573242,00002.685547,00003.330078,00002.812500,00001.826172,-00001.079102,-00000.102539,-00000.332031,00000.048828,-00000.009766,00000.029297
0000000005568,00002.460938,00001.845703,00001.767578,00002.485352,00002.636719,00002.573242,00002.685547,00003.334961,00002.817383,00001.826172,-00001.069336,-00000.102539,-00000.336914,00000.043945,-00000.014648,00000.029297
0000000005569,00002.465820,00001.840820,00001.772461,00002.485352,00002.636719,00002.573242,00002.675781,00003.334961,00002.812500,00001.826172,-00001.064453,-00000.102539,-00000.341797,00000.039063,-00000.019531,00000.029297
0000000005570,00002.465820,00001.845703,00001.767578,00002.485352,00002.636719,00002.578125,00002.680664,00003.334961,00002.812500,00001.831055,-00001.069336,-00000.092773,-00000.336914,00000.039063,-00000.024414,00000.034180
0000000005571,00002.465820,00001.845703,00001.772461,00002.490234,00002.646484,00002.578125,00002.685547,00003.339844,00002.812500,00001.831055,-00001.064453,-00000.087891,-00000.341797,00000.039063,-00000.024414,00000.029297
0000000005572,00002.460938,00001.840820,00001.767578,00002.485352,00002.636719,00002.578125,00002.680664,00003.339844,00002.812500,00001.826172,-00001.064453,-00000.083008,-00000.336914,00000.034180,-00000.019531,00000.029297
0000000005573,00002.456055,00001.845703,00001.767578,00002.490234,00002.641602,00002.573242,00002.680664,00003.330078,00002.817383,00001.821289,-00001.064453,-00000.078125,-00000.332031,00000.039063,-00000.014648,00000.029297
0000000005574,00002.446289,00001.845703,00001.782227,00002.485352,00002.641602,00002.578125,00002.685547,00003.334961,00002.817383,00001.826172,-00001.059570,-00000.053711,-00000.322266,00000.039063,-00000.009766,00000.029297
0000000005575,00002.431641,00001.840820,00001.791992,00002.490234,00002.641602,00002.578125,00002.680664,00003.339844,00002.817383,00001.821289,-00001.064453,-00000.034180,-00000.312500,00000.034180,-00000.014648,00000.034180
0000000005576,00002.416992,00001.835938,00001.791992,00002.485352,00002.641602,00002.578125,00002.680664,00003.339844,00002.812500,00001.816406,-00001.069336,-00000.014648,-00000.312500,00000.024414,-00000.014648,00000.034180
0000000005577,00002.412109,00001.840820,00001.791992,00002.485352,00002.641602,00002.573242,00002.680664,00003.334961,00002.817383,00001.816406,-00001.069336,-00000.014648,-00000.312500,00000.024414,-00000.004883,00000.034180
0000000005578,00002.412109,00001.840820,00001.791992,00002.490234,00002.636719,00002.573242,00002.680664,00003.334961,00002.817383,00001.811523,-00001.074219,-00000.014648,-00000.312500,00000.024414,00000.000000,00000.034180
0000000005579,00002.402344,00001.831055,00001.787109,00002.485352,00002.631836,00002.573242,00002.675781,00003.334961,00002.812500,00001.801758,-00001.079102,-00000.009766,-00000.307617,00000.024414,-00000.004883,00000.034180
0000000005580,00002.397461,00001.835938,00001.791992,00002.485352,00002.641602,00002.573242,00002.675781,00003.334961,00002.812500,00001.801758,-00001.088867,00000.019531,-00000.292969,00000.019531,-00000.004883,00000.034180
0000000005581,00002.392578,00001.835938,00001.787109,00002.490234,00002.631836,00002.568359,00002.675781,00003.334961,00002.817383,00001.791992,-00001.088867,00000.024414,-00000.292969,00000.014648,-00000.004883,00000.039063
0000000005582,00002.392578,00001.835938,00001.787109,00002.490234,00002.631836,00002.573242,00002.680664,00003.330078,00002.817383,00001.791992,-00001.088867,00000.019531,-00000.297852,00000.014648,-00000.009766,00000.039063
0000000005583,00002.382813,00001.835938,00001.791992,00002.485352,00002.631836,00002.568359,00002.680664,00003.330078,00002.817383,00001.796875,-00001.083984,00000.024414,-00000.302734,00000.014648,-00000.009766,00000.039063
0000000005584,00002.387695,00001.831055,00001.791992,00002.485352,00002.631836,00002.568359,00002.675781,00003.334961,00002.812500,00001.796875,-00001.083984,00000.024414,-00000.297852,00000.014648,-00000.009766,00000.039063
0000000005585,00002.382813,00001.835938,00001.791992,00002.485352,00002.636719,00002.568359,00002.680664,00003.330078,00002.817383,00001.791992,-00001.088867,00000.029297,-00000.292969,00000.009766,-00000.009766,00000.043945
0000000005586,00002.382813,00001.831055,00001.796875,00002.485352,00002.631836,00002.568359,00002.675781,00003.334961,00002.812500,00001.791992,-00001.088867,00000.029297,-00000.292969,00000.004883,-00000.014648,00000.048828
0000000005587,00002.382813,00001.831055,00001.801758,00002.485352,00002.636719,00002.568359,00002.675781,00003.334961,00002.812500,00001.796875,-00001.088867,00000.034180,-00000.297852,00000.014648,-00000.014648,00000.043945
0000000005588,00002.382813,00001.835938,00001.796875,00002.485352,00002.631836,00002.568359,00002.675781,00003.330078,00002.817383,00001.791992,-00001.083984,00000.034180,-00000.297852,00000.014648,-00000.009766,00000.043945
0000000005589,00002.382813,00001.831055,00001.791992,00002.485352,00002.631836,00002.558594,00002.675781,00003.330078,00002.812500,00001.796875,-00001.074219,00000.029297,-00000.302734,00000.019531,-00000.014648,00000.043945
0000000005590,00002.382813,00001.826172,00001.791992,00002.485352,00002.622070,00002.553711,00002.666016,00003.334961,00002.812500,00001.791992,-00001.064453,00000.019531,-00000.307617,00000.019531,-00000.014648,00000.053711
0000000005591,00002.382813,00001.826172,00001.796875,00002.485352,00002.622070,00002.558594,00002.666016,00003.334961,00002.812500,00001.791992,-00001.069336,00000.019531,-00000.307617,00000.019531,-00000.009766,00000.053711
0000000005592,00002.377930,00001.831055,00001.796875,00002.480469,00002.631836,00002.553711,00002.675781,00003.330078,00002.812500,00001.791992,-00001.074219,00000.024414,-00000.302734,00000.019531,-00000.009766,00000.058594
0000000005593,00002.377930,00001.826172,00001.801758,00002.480469,00002.626953,00002.553711,00002.670898,00003.334961,00002.807617,00001.796875,-00001.083984,00000.024414,-00000.302734,00000.014648,-00000.014648,00000.063477
0000000005594,00002.373047,00001.821289,00001.796875,00002.475586,00002.626953,00002.548828,00002.670898,00003.334961,00002.807617,00001.796875,-00001.093750,00000.019531,-00000.302734,00000.019531,-00000.014648,00000.063477
0000000005595,00002.373047,00001.826172,00001.791992,00002.480469,00002.626953,00002.548828,00002.670898,00003.325195,00002.812500,00001.791992,-00001.098633,00000.024414,-00000.297852,00000.019531,-00000.019531,00000.058594
0000000005596,00002.373047,00001.821289,00001.796875,00002.480469,00002.626953,00002.553711,00002.666016,00003.334961,00002.807617,00001.791992,-00001.093750,00000.024414,-00000.297852,00000.019531,-00000.024414,00000.058594
0000000005597,00002.363281,00001.826172,00001.791992,00002.475586,00002.626953,00002.553711,00002.670898,00003.334961,00002.807617,00001.796875,-00001.147461,00000.019531,-00000.297852,00000.019531,-00000.019531,00000.058594
0000000005598,00002.363281,00001.826172,00001.767578,00002.480469,00002.622070,00002.553711,00002.666016,00003.325195,00002.807617,00001.787109,-00001.245117,00000.014648,-00000.273438,00000.048828,00000.004883,00000.058594
0000000005599,00002.353516,00001.826172,00001.762695,00002.475586,00002.617188,00002.548828,00002.666016,00003.325195,00002.807617,00001.787109,-00001.279297,00000.014648,-00000.263672,00000.043945,00000.004883,00000.058594
0000000005600,00002.358398,00001.826172,00001.767578,00002.475586,00002.617188,00002.548828,00002.666016,00003.330078,00002.807617,00001.791992,-00001.284180,00000.014648,-00000.268555,00000.039063,-00000.004883,00000.053711
0000000005601,00002.358398,00001.826172,00001.767578,00002.475586,00002.617188,00002.543945,00002.666016,00003.330078,00002.807617,00001.787109,-00001.264648,00000.009766,-00000.278320,00000.019531,-00000.014648,00000.053711
0000000005602,00002.358398,00001.826172,00001.767578,00002.475586,00002.617188,00002.543945,00002.666016,00003.330078,00002.807617,00001.787109,-00001.235352,00000.009766,-00000.283203,00000.024414,00000.000000,00000.048828
0000000005603,00002.353516,00001.826172,00001.767578,00002.475586,00002.622070,00002.543945,00002.666016,00003.330078,00002.812500,00001.787109,-00001.220703,00000.004883,-00000.283203,00000.024414,00000.004883,00000.048828
0000000005604,00002.358398,00001.821289,00001.767578,00002.470703,00002.626953,00002.543945,00002.666016,00003.330078,00002.807617,00001.787109,-00001.191406,00000.004883,-00000.288086,00000.014648,00000.000000,00000.053711
0000000005605,00002.358398,00001.826172,00001.772461,00002.475586,00002.626953,00002.543945,00002.670898,00003.334961,00002.812500,00001.787109,-00001.186523,00000.004883,-00000.292969,00000.004883,-00000.009766,00000.053711
0000000005606,00002.353516,00001.826172,00001.772461,00002.475586,00002.622070,00002.548828,00002.666016,00003.334961,00002.812500,00001.791992,-00001.176758,00000.014648,-00000.292969,00000.004883,-00000.014648,00000.058594
0000000005607,00002.348633,00001.826172,00001.772461,00002.475586,00002.626953,00002.543945,00002.670898,00003.330078,00002.812500,00001.782227,-00001.162109,00000.019531,-00000.292969,00000.004883,-00000.009766,00000.058594
0000000005608,00002.358398,00001.826172,00001.782227,00002.475586,00002.626953,00002.548828,00002.670898,00003.334961,00002.807617,00001.791992,-00001.152344,00000.019531,-00000.297852,00000.000000,-00000.009766,00000.058594
0000000005609,00002.353516,00001.826172,00001.791992,00002.475586,00002.626953,00002.543945,00002.670898,00003.330078,00002.812500,00001.791992,-00001.142578,00000.029297,-00000.292969,-00000.004883,-00000.014648,00000.058594
0000000005610,00002.353516,00001.826172,00001.791992,00002.480469,00002.626953,00002.548828,00002.666016,00003.330078,00002.812500,00001.787109,-00001.142578,00000.039063,-00000.292969,-00000.004883,-00000.009766,00000.058594
0000000005611,00002.358398,00001.821289,00001.796875,00002.480469,00002.622070,00002.548828,00002.666016,00003.334961,00002.812500,00001.787109,-00001.142578,00000.043945,-00000.288086,-00000.004883,-00000.004883,00000.058594
0000000005612,00002.358398,00001.821289,00001.801758,00002.485352,00002.626953,00002.553711,00002.666016,00003.334961,00002.812500,00001.787109,-00001.137695,00000.058594,-00000.288086,-00000.004883,-00000.009766,00000.058594
0000000005613,00002.353516,00001.821289,00001.801758,00002.480469,00002.626953,00002.553711,00002.666016,00003.334961,00002.807617,00001.787109,-00001.137695,00000.068359,-00000.283203,-00000.004883,-00000.009766,00000.058594
0000000005614,00002.353516,00001.821289,00001.796875,00002.480469,00002.626953,00002.553711,00002.666016,00003.334961,00002.812500,00001.787109,-00001.152344,00000.073242,-00000.278320,-00000.004883,-00000.004883,00000.058594
0000000005615,00002.358398,00001.816406,00001.796875,00002.485352,00002.622070,00002.553711,00002.666016,00003.334961,00002.812500,00001.787109,-00001.152344,00000.068359,-00000.278320,-00000.004883,00000.000000,00000.058594
0000000005616,00002.353516,00001.816406,00001.791992,00002.480469,00002.622070,00002.548828,00002.666016,00003.334961,00002.807617,00001.787109,-00001.142578,00000.068359,-00000.278320,-00000.004883,-00000.004883,00000.058594
0000000005617,00002.353516,00001.816406,00001.796875,00002.475586,00002.622070,00002.543945,00002.661133,00003.330078,00002.807617,00001.787109,-00001.137695,00000.073242,-00000.278320,-00000.014648,-00000.009766,00000.068359
0000000005618,00002.348633,00001.821289,00001.796875,00002.480469,00002.622070,00002.548828,00002.670898,00003.330078,00002.817383,00001.787109,-00001.137695,00000.078125,-00000.278320,-00000.014648,-00000.009766,00000.063477
0000000005619,00002.348633,00001.821289,00001.791992,00002.480469,00002.626953,00002.548828,00002.670898,00003.330078,00002.817383,00001.787109,-00001.137695,00000.073242,-00000.283203,-00000.014648,-00000.004883,00000.063477
0000000005620,00002.353516,00001.816406,00001.796875,00002.480469,00002.622070,00002.553711,00002.666016,00003.334961,00002.812500,00001.787109,-00001.132813,00000.068359,-00000.288086,-00000.014648,-00000.009766,00000.063477
0000000005621,00002.348633,00001.816406,00001.796875,00002.485352,00002.622070,00002.553711,00002.661133,00003.334961,00002.812500,00001.777344,-00001.127930,00000.068359,-00000.278320,-00000.009766,-00000.009766,00000.063477
0000000005622,00002.348633,00001.821289,00001.791992,00002.480469,00002.626953,00002.543945,00002.666016,00003.330078,00002.812500,00001.787109,-00001.118164,00000.058594,-00000.283203,-00000.004883,-00000.009766,00000.058594
0000000005623,00002.353516,00001.816406,00001.791992,00002.485352,00002.622070,00002.553711,00002.666016,00003.334961,00002.817383,00001.787109,-00001.113281,00000.053711,-00000.283203,-00000.009766,-00000.014648,00000.063477
0000000005624,00002.353516,00001.816406,00001.796875,00002.480469,00002.622070,00002.553711,00002.666016,00003.334961,00002.812500,00001.791992,-00001.108398,00000.053711,-00000.283203,-00000.004883,-00000.014648,00000.068359
0000000005625,00002.348633,00001.816406,00001.791992,00002.475586,00002.622070,00002.543945,00002.666016,00003.325195,00002.807617,00001.787109,-00001.118164,00000.048828,-00000.278320,00000.000000,-00000.024414,00000.068359
0000000005626,00002.353516,00001.816406,00001.791992,00002.480469,00002.622070,00002.553711,00002.666016,00003.330078,00002.812500,00001.787109,-00001.113281,00000.043945,-00000.278320,00000.004883,-00000.024414,00000.068359
0000000005627,00002.353516,00001.816406,00001.796875,00002.480469,00002.626953,00002.553711,00002.666016,00003.339844,00002.807617,00001.791992,-00001.113281,00000.048828,-00000.278320,00000.004883,-00000.029297,00000.068359
0000000005628,00002.348633,00001.816406,00001.796875,00002.480469,00002.626953,00002.548828,00002.666016,00003.330078,00002.812500,00001.787109,-00001.103516,00000.043945,-00000.283203,00000.004883,-00000.029297,00000.063477
0000000005629,00002.353516,00001.816406,00001.796875,00002.480469,00002.626953,00002.548828,00002.666016,00003.330078,00002.812500,00001.791992,-00001.093750,00000.039063,-00000.292969,00000.004883,-00000.019531,00000.063477
0000000005630,00002.353516,00001.816406,00001.801758,00002.480469,00002.626953,00002.553711,00002.666016,00003.334961,00002.812500,00001.791992,-00001.088867,00000.039063,-00000.288086,00000.009766,-00000.019531,00000.063477
0000000005631,00002.353516,00001.821289,00001.796875,00002.485352,00002.622070,00002.553711,00002.666016,00003.330078,00002.817383,00001.791992,-00001.069336,00000.043945,-00000.292969,00000.014648,-00000.014648,00000.063477
0000000005632,00002.358398,00001.821289,00001.801758,00002.485352,00002.626953,00002.553711,00002.670898,00003.330078,00002.817383,00001.791992,-00001.064453,00000.048828,-00000.297852,00000.014648,-00000.014648,00000.063477
0000000005633,00002.363281,00001.816406,00001.806641,00002.485352,00002.622070,00002.558594,00002.666016,00003.330078,00002.812500,00001.796875,-00001.054688,00000.043945,-00000.302734,00000.014648,-00000.029297,00000.058594
0000000005634,00002.353516,00001.821289,00001.801758,00002.485352,00002.626953,00002.558594,00002.670898,00003.330078,00002.817383,00001.796875,-00001.054688,00000.043945,-00000.307617,00000.014648,-00000.029297,00000.058594
0000000005635,00002.377930,00001.816406,00001.801758,00002.490234,00002.622070,00002.563477,00002.666016,00003.330078,00002.817383,00001.801758,-00001.049805,00000.048828,-00000.302734,00000.014648,-00000.029297,00000.058594
0000000005636,00002.377930,00001.821289,00001.796875,00002.485352,00002.622070,00002.558594,00002.666016,00003.330078,00002.817383,00001.801758,-00001.035156,00000.048828,-00000.307617,00000.019531,-00000.029297,00000.058594
0000000005637,00002.377930,00001.816406,00001.801758,00002.490234,00002.626953,00002.563477,00002.670898,00003.325195,00002.817383,00001.801758,-00001.030273,00000.048828,-00000.307617,00000.014648,-00000.029297,00000.058594
0000000005638,00002.382813,00001.816406,00001.806641,00002.485352,00002.631836,00002.568359,00002.666016,00003.334961,00002.817383,00001.811523,-00001.025391,00000.048828,-00000.307617,00000.014648,-00000.029297,00000.058594
0000000005639,00002.382813,00001.816406,00001.806641,00002.490234,00002.626953,00002.568359,00002.666016,00003.334961,00002.817383,00001.801758,-00001.064453,00000.053711,-00000.292969,00000.019531,-00000.029297,00000.063477
0000000005640,00002.358398,00001.821289,00001.806641,00002.485352,00002.626953,00002.563477,00002.670898,00003.330078,00002.817383,00001.806641,-00001.201172,00000.058594,-00000.273438,00000.048828,-00000.014648,00000.053711
0000000005641,00002.363281,00001.816406,00001.806641,00002.485352,00002.622070,00002.563477,00002.666016,00003.334961,00002.817383,00001.811523,-00001.245117,00000.063477,-00000.263672,00000.048828,-00000.019531,00000.053711
0000000005642,00002.358398,00001.816406,00001.806641,00002.480469,00002.617188,00002.553711,00002.661133,00003.334961,00002.807617,00001.811523,-00001.279297,00000.058594,-00000.268555,00000.039063,-00000.039063,00000.053711
0000000005643,00002.358398,00001.811523,00001.806641,00002.480469,00002.617188,00002.553711,00002.661133,00003.334961,00002.812500,00001.806641,-00001.293945,00000.058594,-00000.268555,00000.039063,-00000.039063,00000.058594
0000000005644,00002.348633,00001.806641,00001.791992,00002.475586,00002.612305,00002.543945,00002.656250,00003.325195,00002.812500,00001.791992,-00001.308594,00000.048828,-00000.263672,00000.043945,-00000.004883,00000.053711
0000000005645,00002.353516,00001.806641,00001.791992,00002.470703,00002.617188,00002.543945,00002.656250,00003.330078,00002.807617,00001.791992,-00001.303711,00000.039063,-00000.268555,00000.034180,00000.000000,00000.058594
0000000005646,00002.353516,00001.806641,00001.791992,00002.470703,00002.622070,00002.539063,00002.656250,00003.330078,00002.807617,00001.791992,-00001.269531,00000.029297,-00000.278320,00000.019531,00000.004883,00000.063477
0000000005647,00002.353516,00001.806641,00001.787109,00002.470703,00002.617188,00002.539063,00002.656250,00003.330078,00002.807617,00001.796875,-00001.259766,00000.024414,-00000.278320,00000.019531,00000.009766,00000.063477
0000000005648,00002.348633,00001.806641,00001.782227,00002.470703,00002.617188,00002.539063,00002.661133,00003.325195,00002.812500,00001.791992,-00001.250000,00000.024414,-00000.283203,00000.019531,00000.004883,00000.063477
0000000005649,00002.348633,00001.811523,00001.777344,00002.470703,00002.617188,00002.539063,00002.656250,00003.325195,00002.812500,00001.791992,-00001.235352,00000.019531,-00000.283203,00000.029297,00000.000000,00000.058594
0000000005650,00002.353516,00001.816406,00001.777344,00002.470703,00002.622070,00002.539063,00002.661133,00003.325195,00002.812500,00001.791992,-00001.230469,00000.014648,-00000.283203,00000.029297,-00000.004883,00000.058594
0000000005651,00002.353516,00001.811523,00001.772461,00002.470703,00002.617188,00002.539063,00002.661133,00003.325195,00002.812500,00001.787109,-00001.220703,00000.019531,-00000.288086,00000.019531,-00000.014648,00000.063477
0000000005652,00002.358398,00001.811523,00001.777344,00002.475586,00002.612305,00002.543945,00002.661133,00003.330078,00002.812500,00001.787109,-00001.201172,00000.019531,-00000.292969,00000.019531,-00000.009766,00000.058594
0000000005653,00002.358398,00001.811523,00001.777344,00002.470703,00002.622070,00002.543945,00002.666016,00003.334961,00002.812500,00001.791992,-00001.196289,00000.019531,-00000.297852,00000.014648,-00000.009766,00000.058594
0000000005654,00002.358398,00001.811523,00001.787109,00002.475586,00002.622070,00002.548828,00002.661133,00003.334961,00002.812500,00001.791992,-00001.166992,00000.019531,-00000.302734,00000.014648,-00000.014648,00000.058594
0000000005655,00002.358398,00001.811523,00001.787109,00002.470703,00002.622070,00002.548828,00002.661133,00003.334961,00002.812500,00001.791992,-00001.162109,00000.019531,-00000.302734,00000.014648,-00000.014648,00000.058594
0000000005656,00002.353516,00001.811523,00001.791992,00002.470703,00002.617188,00002.543945,00002.661133,00003.330078,00002.807617,00001.787109,-00001.162109,00000.029297,-00000.297852,00000.009766,-00000.014648,00000.058594
0000000005657,00002.353516,00001.811523,00001.791992,00002.470703,00002.622070,00002.543945,00002.666016,00003.330078,00002.812500,00001.791992,-00001.152344,00000.024414,-00000.307617,00000.004883,-00000.014648,00000.058594
0000000005658,00002.358398,00001.811523,00001.796875,00002.475586,00002.622070,00002.548828,00002.661133,00003.334961,00002.812500,00001.791992,-00001.147461,00000.024414,-00000.307617,00000.000000,-00000.014648,00000.058594
0000000005659,00002.358398,00001.811523,00001.801758,00002.475586,00002.622070,00002.548828,00002.661133,00003.334961,00002.812500,00001.791992,-00001.142578,00000.029297,-00000.307617,00000.004883,-00000.009766,00000.058594
